# This standard spectrum was made by Joe Hennawi by combining the
# Massey P., Strobel K., Barnes J.V., Anderson E. Astrophys. J. 328, 315 (1988)
# measurements with the Hamuy standards on the ESO webpage, i.e. 
# (Hamuy et al., PASP, 104, 533, 1992); 
#the second to wavelengths from 6000 to 10500A (Hamuy et al., PASP, 
# 106, 566, 1994). 
#http://www.eso.org/sci/observing/tools/standards/spectra/hamuystandards.html
# Note that the Massey data were presented in the Hayes-Latham system 
# system which I converted assuming they were AB mags. This probably 
# results in a small shift, but it matches on very well to the Hamuy data. 
#      LAM            FLAM (1d-16)
      3128.78       2594.6033
      3130.86       2532.1733
      3132.94       2665.1146
      3135.02       2857.1913
      3137.10       2979.6332
      3139.19       3067.5155
      3141.27       3172.5688
      3143.35       3215.4046
      3145.43       3178.7829
      3147.51       3085.2204
      3149.59       2931.6494
      3151.67       2938.5844
      3153.76       3067.3608
      3155.84       3163.6738
      3157.92       3293.2076
      3160.00       3353.1021
      3162.08       3305.7873
      3164.16       3141.2563
      3166.24       3346.0473
      3168.32       3366.3641
      3170.41       3374.3564
      3172.49       3369.9298
      3174.57       3462.9903
      3176.65       3591.5486
      3178.73       3623.3737
      3180.81       3595.3777
      3182.89       3627.2395
      3184.98       3669.5131
      3187.06       3685.0285
      3189.14       3731.4179
      3191.22       3873.5318
      3193.30       3954.9490
      3195.38       3975.3456
      3197.46       3955.5731
      3199.55       3921.4264
      3201.63       3912.7261
      3203.71       3976.6285
      3205.79       4056.4931
      3207.87       4126.5475
      3209.95       4083.4171
      3212.03       4011.0720
      3214.11       3983.8042
      3216.20       3971.3279
      3218.28       3904.5749
      3220.36       3741.2111
      3222.44       3681.7225
      3224.52       3714.4123
      3226.60       3831.1537
      3228.68       3977.1259
      3230.77       4132.4698
      3232.85       4207.7533
      3234.93       4159.9806
      3237.01       4108.9667
      3239.09       4122.6300
      3241.17       4182.3128
      3243.25       4254.6000
      3245.34       4160.0788
      3247.42       4030.3677
      3249.50       4032.6275
      3251.58       4136.4903
      3253.66       4192.5297
      3255.74       4206.4986
      3257.82       4220.5174
      3259.90       4289.5428
      3261.99       4448.9375
      3264.07       4546.7654
      3266.15       4659.6017
      3268.23       4636.5565
      3270.31       4405.9771
      3272.39       4156.1375
      3274.47       4015.4799
      3276.56       3890.3219
      3278.64       3800.4404
      3280.72       3880.4561
      3282.80       4013.5802
      3284.88       4117.0062
      3286.96       4157.4880
      3289.04       4110.3737
      3291.13       4189.2077
      3293.21       4317.0050
      3295.29       4367.5083
      3297.37       4262.7069
      3299.45       4152.7637
      3301.53       4128.4760
      3303.61       4104.3307
      3305.69       4061.5818
      3307.78       4034.1186
      3309.86       4021.6282
      3311.94       4061.2146
      3314.02       4131.5258
      3316.10       4199.1859
      3318.18       4213.2784
      3320.26       4180.9551
      3322.35       4129.8206
      3324.43       4124.6511
      3326.51       4176.7963
      3328.59       4256.9657
      3330.67       4350.6791
      3332.75       4438.2799
      3334.83       4412.3743
      3336.92       4263.1471
      3339.00       4157.0834
      3341.08       4155.7333
      3343.16       4302.3575
      3345.24       4308.8963
      3347.32       4291.6636
      3349.40       4286.3312
      3351.48       4316.6423
      3353.57       4283.5797
      3355.65       4301.9770
      3357.73       4296.6456
      3359.81       4236.3452
      3361.89       4207.7820
      3363.97       4179.4181
      3366.05       4162.7317
      3368.14       4153.7599
      3370.22       4167.7806
      3372.30       4113.0949
      3374.38       4176.6941
      3376.46       4272.6481
      3378.54       4310.8386
      3380.62       4293.6547
      3382.71       4324.0669
      3384.79       4294.9483
      3386.87       4219.1421
      3388.95       4167.6425
      3391.03       4189.4512
      3393.11       4215.2600
      3395.19       4229.5260
      3397.27       4158.7167
      3399.36       4219.1741
      3401.44       4217.8934
      3403.52       4181.8121
      3405.60       4126.9884
      3407.68       4091.6910
      3409.76       4038.0556
      3411.84       3977.7919
      3413.93       3932.8964
      3416.01       3964.4526
      3418.09       3970.5830
      3420.17       3951.1655
      3422.25       3888.6325
      3424.33       3887.4872
      3426.41       3954.9499
      3428.50       3957.4319
      3430.58       3927.2300
      3432.66       3936.9488
      3434.74       3928.5576
      3436.82       3859.2868
      3438.90       3791.2371
      3440.98       3769.2537
      3443.06       3870.1734
      3445.15       3908.4585
      3447.23       3896.5532
      3449.31       3856.1744
      3451.39       3930.3610
      3453.47       3991.2505
      3455.55       4038.1800
      3457.63       4070.6405
      3459.72       4126.1015
      3461.80       4140.1647
      3463.88       4116.1907
      3465.96       4077.3108
      3468.04       4068.6680
      3470.12       3993.2916
      3472.20       4006.9163
      3474.29       4005.8065
      3476.37       3927.9825
      3478.45       3830.4489
      3480.53       3861.2702
      3482.61       3874.4581
      3484.69       3841.4208
      3486.77       3756.4128
      3488.85       3738.1362
      3490.94       3750.9112
      3493.02       3749.8955
      3495.10       3776.6063
      3497.18       3817.5508
      3499.26       3841.2072
      3501.34       3850.8052
      3503.42       3867.5435
      3505.51       3891.5221
      3507.59       3872.6094
      3509.67       3839.6233
      3511.75       3835.0736
      3513.83       3876.6702
      3515.91       3907.9103
      3517.99       3957.5890
      3520.08       4004.2110
      3522.16       3973.7776
      3524.24       3860.9143
      3526.32       3806.9512
      3528.40       3820.0131
      3530.48       3890.0269
      3532.56       3885.4439
      3534.64       3859.4837
      3536.73       3894.1960
      3538.81       3980.2191
      3540.89       4023.4267
      3542.97       4026.1099
      3545.05       4006.5969
      3547.13       3957.9091
      3549.21       3877.5399
      3551.30       3791.8153
      3553.38       3769.9729
      3555.46       3817.9420
      3557.54       3852.3105
      3559.62       3840.7261
      3561.70       3871.7323
      3563.78       3935.4820
      3565.87       3981.9034
      3567.95       4025.1689
      3570.03       4061.4155
      3572.11       4128.2996
      3574.19       4180.8575
      3576.27       4118.6946
      3578.35       4038.8194
      3580.43       3997.1389
      3582.52       4010.9246
      3584.60       4021.0540
      3586.68       4023.7936
      3588.76       3971.2937
      3590.84       3905.0650
      3592.92       3854.1157
      3595.00       3814.3632
      3597.09       3781.9792
      3599.17       3819.5899
      3601.25       3925.6778
      3603.33       4019.8754
      3605.41       4052.3889
      3607.49       4081.4053
      3609.57       4043.0472
      3611.66       3935.5749
      3613.74       3866.4097
      3615.82       3847.7557
      3617.90       3822.1511
      3619.98       3768.8450
      3622.06       3712.8627
      3624.14       3650.9832
      3626.22       3593.4470
      3628.31       3659.4247
      3630.39       3754.1772
      3632.47       3774.1308
      3634.55       3742.1333
      3636.63       3734.4116
      3638.71       3750.8096
      3640.79       3770.7553
      3642.88       3818.8454
      3644.96       3846.2357
      3647.04       3813.6413
      3649.12       3763.9557
      3651.20       3763.1316
      3653.28       3786.6409
      3655.36       3796.2894
      3657.45       3781.5094
      3659.53       3801.6398
      3661.61       3797.3193
      3663.69       3786.0258
      3665.77       3823.7575
      3667.85       3908.3833
      3669.93       3889.5958
      3672.01       3867.3365
      3674.10       3855.8476
      3676.18       3837.3166
      3678.26       3815.3639
      3680.34       3818.0794
      3682.42       3834.8972
      3684.50       3830.5658
      3686.58       3801.6522
      3688.67       3769.4849
      3690.75       3765.2346
      3692.83       3740.2660
      3694.91       3732.6126
      3696.99       3762.9104
      3699.07       3748.3048
      3701.15       3682.5309
      3703.24       3611.2564
      3705.32       3551.1597
      3707.40       3540.6460
      3709.48       3562.8271
      3711.56       3608.3417
      3713.64       3654.4370
      3715.72       3718.2110
      3717.80       3693.5819
      3719.89       3672.4980
      3721.97       3668.3921
      3724.05       3698.1955
      3726.13       3769.6812
      3728.21       3856.7335
      3730.29       3920.4405
      3732.37       3876.5957
      3734.46       3770.2152
      3736.54       3766.0161
      3738.62       3849.4469
      3740.70       4007.8819
      3742.78       4066.6035
      3744.86       3987.9450
      3746.94       3807.7311
      3749.02       3632.3210
      3751.11       3598.3366
      3753.19       3743.0036
      3755.27       3922.2811
      3757.35       4102.5805
      3759.43       4224.5076
      3761.51       4314.1519
      3763.59       4325.2900
      3765.68       4187.3075
      3767.76       3903.5068
      3769.84       3625.5599
      3771.92       3545.6491
      3774.00       3644.3209
      3776.08       3875.5886
      3778.16       4110.1650
      3780.25       4275.4391
      3782.33       4414.7156
      3784.41       4545.9528
      3786.49       4633.9045
      3788.57       4611.7939
      3790.65       4411.5666
      3792.73       4135.3853
      3794.81       3855.1345
      3796.90       3623.7916
      3798.98       3524.4156
      3801.06       3576.1149
      3803.14       3792.5892
      3805.22       4074.3731
      3807.30       4265.6541
      3809.38       4404.6465
      3811.47       4531.4462
      3813.55       4627.6692
      3815.63       4592.9148
      3817.71       4434.1957
      3819.79       4265.2182
      3821.87       4264.5014
      3823.95       4319.1225
      3826.04       4274.8689
      3828.12       4173.0176
      3830.20       4032.5365
      3832.28       3790.5871
      3834.36       3606.0744
      3836.44       3556.0133
      3838.52       3634.8967
      3840.60       3851.4235
      3842.69       4084.6131
      3844.77       4272.4862
      3846.85       4395.5214
      3848.93       4480.6468
      3851.01       4525.5481
      3853.09       4596.2297
      3855.17       4698.2104
      3857.26       4758.4312
      3859.34       4740.1836
      3861.42       4735.0745
      3863.50       4725.6221
      3865.58       4694.5177
      3867.66       4629.3868
      3869.74       4565.1621
      3871.83       4514.2879
      3873.91       4455.7650
      3875.99       4365.7190
      3878.07       4305.1615
      3880.15       4206.5238
      3882.23       4057.4906
      3884.31       3838.7687
      3886.40       3628.4979
      3888.48       3471.0579
      3890.56       3379.0694
      3892.64       3416.1143
      3894.72       3653.1559
      3896.80       3950.0624
      3898.88       4208.6268
      3900.96       4390.1240
      3903.05       4516.6177
      3905.13       4612.6484
      3907.21       4693.3976
      3909.29       4701.3748
      3911.37       4623.4103
      3913.45       4567.7330
      3915.53       4546.0964
      3917.62       4553.8331
      3919.70       4540.6271
      3921.78       4473.5740
      3923.86       4411.5759
      3925.94       4386.6512
      3928.02       4402.2306
      3930.10       4434.1728
      3932.18       4437.6466
      3934.27       4420.7229
      3936.35       4399.8073
      3938.43       4415.4458
      3940.51       4463.9140
      3942.59       4496.3188
      3944.67       4499.8561
      3946.75       4462.1105
      3948.84       4392.2038
      3950.92       4327.3795
      3953.00       4291.0878
      3955.08       4294.4756
      3957.16       4270.2477
      3959.24       4145.6848
      3961.32       3998.8963
      3963.41       3839.5810
      3965.49       3629.3394
      3967.57       3402.2931
      3969.65       3230.8477
      3971.73       3171.4741
      3973.81       3230.0261
      3975.89       3447.8712
      3977.97       3717.8901
      3980.06       3968.6465
      3982.14       4151.3403
      3984.22       4231.8887
      3986.30       4286.2821
      3988.38       4349.3809
      3990.46       4409.3459
      3992.54       4421.0064
      3994.63       4408.2733
      3996.71       4411.8021
      3998.79       4423.4758
      4000.87       4414.8088
      4002.95       4377.8414
      4005.03       4301.3879
      4007.11       4218.4913
      4009.20       4160.1229
      4011.28       4144.3426
      4013.36       4201.5061
      4015.44       4267.3128
      4017.52       4314.2428
      4019.60       4333.6570
      4021.68       4301.3509
      4023.76       4191.3670
      4025.85       4043.0255
      4027.93       3961.4811
      4030.01       4045.8388
      4032.09       4193.3398
      4034.17       4306.3773
      4036.25       4341.7397
      4038.33       4337.2652
      4040.42       4336.7918
      4042.50       4360.3490
      4044.58       4408.3323
      4046.66       4460.9510
      4048.74       4456.3658
      4050.82       4447.6875
      4052.90       4439.0287
      4054.99       4442.6519
      4057.07       4446.2769
      4059.15       4437.6279
      4061.23       4416.7792
      4063.31       4383.9003
      4065.39       4339.2612
      4067.47       4291.1269
      4069.55       4251.3524
      4071.64       4219.7132
      4073.72       4176.7546
      4075.80       4141.8576
      4077.88       4122.4159
      4079.96       4110.6326
      4082.04       4110.2236
      4084.12       4090.9373
      4086.21       4064.2500
      4088.29       4037.7360
      4090.37       4015.0946
      4092.45       3955.9807
      4094.53       3809.0102
      4096.61       3590.6320
      4098.69       3366.1196
      4100.78       3176.0611
      4102.86       3066.5346
      4104.94       3080.4030
      4107.02       3210.4581
      4109.10       3433.4217
      4111.18       3654.9999
      4113.26       3826.9048
      4115.34       3930.1408
      4117.43       3969.8024
      4119.51       3969.4487
      4121.59       3980.0755
      4123.67       4016.5481
      4125.75       4053.3546
      4127.83       4075.4586
      4129.91       4093.9123
      4132.00       4116.2414
      4134.08       4127.2774
      4136.16       4119.3281
      4138.24       4058.7213
      4140.32       3973.3122
      4142.40       3889.6997
      4144.48       3853.7171
      4146.57       3864.0575
      4148.65       3924.7137
      4150.73       4004.7201
      4152.81       4063.8426
      4154.89       4082.2676
      4156.97       4104.5580
      4159.05       4146.0230
      4161.13       4187.9083
      4163.22       4195.2984
      4165.30       4164.1734
      4167.38       4133.2805
      4169.46       4110.1833
      4171.54       4094.7516
      4173.62       4090.6679
      4175.70       4113.0242
      4177.79       4135.5034
      4179.87       4158.1072
      4181.95       4161.6281
      4184.03       4142.2009
      4186.11       4115.2795
      4188.19       4084.7667
      4190.27       4065.7043
      4192.35       4054.1947
      4194.44       4061.3791
      4196.52       4083.5942
      4198.60       4090.8361
      4200.68       4086.7827
      4202.76       4090.2626
      4204.84       4089.9783
      4206.92       4089.6983
      4209.01       4078.1366
      4211.09       4089.1419
      4213.17       4077.5851
      4215.25       4043.6537
      4217.33       4024.8086
      4219.41       4024.5418
      4221.49       4027.9908
      4223.58       4035.1528
      4225.66       4038.6143
      4227.74       4027.2111
      4229.82       4015.8444
      4231.90       4008.2042
      4233.98       4007.9519
      4236.06       4004.0141
      4238.15       3989.0444
      4240.23       3992.4795
      4242.31       4014.3609
      4244.39       4025.2263
      4246.47       4006.4945
      4248.55       3973.1856
      4250.63       3951.0574
      4252.71       3958.1131
      4254.80       3976.1531
      4256.88       3983.2573
      4258.96       3964.7322
      4261.04       3920.9319
      4263.12       3881.1942
      4265.20       3866.7070
      4267.28       3873.6260
      4269.37       3905.6543
      4271.45       3919.8601
      4273.53       3937.7452
      4275.61       3941.1646
      4277.69       3944.5898
      4279.77       3958.9440
      4281.85       3966.0400
      4283.94       3969.4925
      4286.02       3965.6380
      4288.10       3954.4990
      4290.18       3936.1322
      4292.26       3907.0446
      4294.34       3860.3555
      4296.42       3835.3637
      4298.50       3842.2530
      4300.59       3870.4856
      4302.67       3873.8705
      4304.75       3852.3439
      4306.83       3830.9377
      4308.91       3827.2373
      4310.99       3841.1924
      4313.07       3851.6484
      4315.16       3840.8522
      4317.24       3808.9832
      4319.32       3780.8580
      4321.40       3766.7944
      4323.48       3745.8774
      4325.56       3701.1396
      4327.64       3646.8502
      4329.73       3580.1415
      4331.81       3485.6391
      4333.89       3362.5254
      4335.97       3211.0581
      4338.05       3027.1331
      4340.13       2866.9162
      4342.21       2806.7153
      4344.29       2861.4248
      4346.38       3029.4664
      4348.46       3228.1236
      4350.54       3402.0036
      4352.62       3529.5477
      4354.70       3601.6721
      4356.78       3644.9287
      4358.86       3671.7583
      4360.95       3688.5810
      4363.03       3698.6658
      4365.11       3705.3609
      4367.19       3715.4959
      4369.27       3725.6561
      4371.35       3732.4084
      4373.43       3725.4231
      4375.52       3718.4518
      4377.60       3725.1970
      4379.68       3725.0873
      4381.76       3687.4291
      4383.84       3613.3604
      4385.92       3540.7805
      4388.00       3495.3178
      4390.08       3504.8956
      4392.17       3553.5569
      4394.25       3609.5384
      4396.33       3669.7825
      4398.41       3727.6011
      4400.49       3758.5324
      4402.57       3782.7503
      4404.65       3810.6319
      4406.74       3824.6068
      4408.82       3817.4771
      4410.90       3803.3535
      4412.98       3771.8713
      4415.06       3716.6111
      4417.14       3665.5389
      4419.22       3668.8381
      4421.31       3685.6978
      4423.39       3689.0194
      4425.47       3678.7674
      4427.55       3648.3272
      4429.63       3618.1437
      4431.71       3604.7709
      4433.79       3608.0274
      4435.87       3621.2808
      4437.96       3611.2267
      4440.04       3601.2029
      4442.12       3601.1423
      4444.20       3631.0601
      4446.28       3667.9792
      4448.36       3688.2495
      4450.44       3684.8004
      4452.53       3688.1437
      4454.61       3701.7060
      4456.69       3708.4833
      4458.77       3705.0215
      4460.85       3691.3501
      4462.93       3654.0965
      4465.01       3577.4638
      4467.10       3476.7235
      4469.18       3366.4010
      4471.26       3274.6227
      4473.34       3265.5562
      4475.42       3320.1147
      4477.50       3394.2907
      4479.58       3460.5534
      4481.66       3515.1340
      4483.75       3567.2918
      4485.83       3606.9140
      4487.91       3620.1996
      4489.99       3596.9129
      4492.07       3563.9164
      4494.15       3554.0633
      4496.23       3570.4492
      4498.32       3600.1528
      4500.40       3606.7765
      4502.48       3613.4112
      4504.56       3606.7509
      4506.64       3590.1665
      4508.72       3600.0940
      4510.80       3630.0536
      4512.88       3640.0916
      4514.97       3626.7002
      4517.05       3623.3582
      4519.13       3606.7109
      4521.21       3600.0719
      4523.29       3603.3905
      4525.37       3613.3668
      4527.45       3586.8451
      4529.54       3557.2405
      4531.62       3540.9059
      4533.70       3557.2577
      4535.78       3603.4364
      4537.86       3610.0933
      4539.94       3596.8306
      4542.02       3586.9224
      4544.11       3580.3368
      4546.19       3560.6234
      4548.27       3547.5492
      4550.35       3547.5714
      4552.43       3537.8066
      4554.51       3521.5763
      4556.59       3521.6000
      4558.67       3521.6288
      4560.76       3511.9403
      4562.84       3492.6151
      4564.92       3479.8024
      4567.00       3470.2330
      4569.08       3460.6925
      4571.16       3457.5414
      4573.24       3476.7379
      4575.33       3483.1846
      4577.41       3483.2257
      4579.49       3483.2677
      4581.57       3480.1041
      4583.65       3470.5426
      4585.73       3467.3933
      4587.81       3464.2479
      4589.90       3461.1064
      4591.98       3451.6065
      4594.06       3426.3177
      4596.14       3398.0863
      4598.22       3385.6425
      4600.30       3382.5795
      4602.38       3391.9938
      4604.46       3398.3054
      4606.55       3376.5222
      4608.63       3357.9766
      4610.71       3364.2258
      4612.79       3386.0492
      4614.87       3414.2991
      4616.95       3430.1231
      4619.03       3436.5163
      4621.12       3430.2589
      4623.20       3417.7165
      4625.28       3405.2187
      4627.36       3386.5239
      4629.44       3364.8344
      4631.52       3337.1305
      4633.60       3312.7062
      4635.69       3303.6418
      4637.77       3294.6028
      4639.85       3306.8387
      4641.93       3334.4454
      4644.01       3334.5278
      4646.09       3331.5406
      4648.17       3322.4327
      4650.25       3316.4020
      4652.34       3322.6038
      4654.42       3350.3502
      4656.50       3365.9034
      4658.58       3369.0970
      4660.66       3369.1913
      4662.74       3381.7216
      4664.82       3388.0516
      4666.91       3385.0298
      4668.99       3372.6826
      4671.07       3357.2844
      4673.15       3351.2079
      4675.23       3342.0637
      4677.31       3329.8754
      4679.39       3333.0473
      4681.48       3348.5368
      4683.56       3348.6453
      4685.64       3339.5137
      4687.72       3336.5493
      4689.80       3324.3890
      4691.88       3303.1370
      4693.96       3282.0199
      4696.04       3267.0534
      4698.13       3267.1687
      4700.21       3279.3404
      4702.29       3291.5614
      4704.37       3297.7500
      4706.45       3276.6771
      4708.53       3258.7389
      4710.61       3228.9807
      4712.70       3196.5535
      4714.78       3179.0574
      4716.86       3187.9753
      4718.94       3214.6362
      4721.02       3232.5767
      4723.10       3232.7054
      4725.18       3223.9115
      4727.27       3215.1459
      4729.35       3209.3607
      4731.43       3218.3716
      4733.51       3221.4708
      4735.59       3233.4964
      4737.67       3248.5578
      4739.75       3245.7050
      4741.83       3219.0514
      4743.92       3201.4500
      4746.00       3201.5912
      4748.08       3204.6818
      4750.16       3207.7776
      4752.24       3187.3041
      4754.32       3166.9654
      4756.40       3164.1947
      4758.49       3176.0198
      4760.57       3182.0245
      4762.65       3182.1718
      4764.73       3173.5411
      4766.81       3159.1115
      4768.89       3153.4475
      4770.97       3162.3245
      4773.06       3159.5675
      4775.14       3139.4179
      4777.22       3122.2711
      4779.30       3105.2186
      4781.38       3099.6610
      4783.46       3114.1250
      4785.54       3137.3148
      4787.62       3149.0561
      4789.71       3143.4254
      4791.79       3134.9127
      4793.87       3114.9306
      4795.95       3100.7841
      4798.03       3100.9475
      4800.11       3106.8327
      4802.19       3106.9986
      4804.28       3107.1686
      4806.36       3104.4785
      4808.44       3113.2389
      4810.52       3133.5503
      4812.60       3139.5042
      4814.68       3122.3778
      4816.76       3108.2090
      4818.85       3108.3842
      4820.93       3114.2948
      4823.01       3103.0212
      4825.09       3086.0992
      4827.17       3072.1004
      4829.25       3058.1665
      4831.33       3044.2936
      4833.41       3036.0754
      4835.50       3036.2585
      4837.58       3030.8520
      4839.66       3042.2242
      4841.74       3025.6430
      4843.82       2998.0881
      4845.90       2968.0501
      4847.98       2938.3134
      4850.07       2900.8517
      4852.15       2853.3349
      4854.23       2770.6404
      4856.31       2633.9523
      4858.39       2483.3377
      4860.47       2322.0070
      4862.55       2223.7804
      4864.64       2230.0779
      4866.72       2348.2731
      4868.80       2514.0685
      4870.88       2652.1974
      4872.96       2749.3802
      4875.04       2808.4321
      4877.12       2842.4518
      4879.20       2866.3066
      4881.29       2874.4322
      4883.37       2893.2234
      4885.45       2896.0880
      4887.53       2904.3012
      4889.61       2915.2242
      4891.69       2945.1151
      4893.77       2956.1932
      4895.86       2970.0473
      4897.94       2975.7350
      4900.02       2978.6892
      4902.10       2981.6472
      4904.18       2990.1143
      4906.26       2984.8267
      4908.34       2976.8074
      4910.43       2974.2842
      4912.51       2974.5043
      4914.59       2963.7838
      4916.67       2928.7256
      4918.75       2857.0057
      4920.83       2797.3286
      4922.91       2764.2428
      4924.99       2774.6554
      4927.08       2818.6572
      4929.16       2884.5329
      4931.24       2932.9778
      4933.32       2960.3433
      4935.40       2974.2372
      4937.48       2979.9531
      4939.56       2977.4428
      4941.65       2977.6774
      4943.73       2975.1703
      4945.81       2964.4640
      4947.89       2953.7967
      4949.97       2948.5975
      4952.05       2951.5512
      4954.13       2949.0715
      4956.22       2952.0274
      4958.30       2952.2687
      4960.38       2949.7915
      4962.46       2944.6036
      4964.54       2942.1350
      4966.62       2945.0891
      4968.70       2948.0477
      4970.78       2956.4529
      4972.87       2956.6989
      4974.95       2946.0735
      4977.03       2919.3105
      4979.11       2911.5029
      4981.19       2930.5852
      4983.27       2949.7908
      4985.35       2947.3288
      4987.44       2923.2517
      4989.52       2907.3931
      4991.60       2899.6234
      4993.68       2902.5480
      4995.76       2902.8006
      4997.84       2892.3825
      4999.92       2879.3456
      5002.00       2871.6560
      5004.09       2874.5573
      5006.17       2882.7699
      5008.25       2877.7220
      5010.33       2851.5959
      5012.41       2815.3149
      5014.49       2782.0619
      5016.57       2759.3460
      5018.66       2757.0581
      5020.74       2780.2626
      5022.82       2814.0108
      5024.90       2822.0574
      5026.98       2827.5236
      5029.06       2832.9987
      5031.14       2838.4884
      5033.23       2846.6108
      5035.31       2849.5015
      5037.39       2844.5254
      5039.47       2839.5609
      5041.55       2837.2173
      5043.63       2824.4492
      5045.71       2801.4032
      5047.79       2773.4309
      5049.88       2760.9553
      5051.96       2763.7665
      5054.04       2781.9121
      5056.12       2802.7584
      5058.20       2803.0342
      5060.28       2792.9999
      5062.36       2777.8812
      5064.45       2765.3925
      5066.53       2768.2148
      5068.61       2788.9643
      5070.69       2802.1193
      5072.77       2804.9820
      5074.85       2813.0250
      5076.93       2818.4971
      5079.02       2837.0154
      5081.10       2850.3993
      5083.18       2855.9465
      5085.26       2840.4975
      5087.34       2822.5341
      5089.42       2804.6822
      5091.50       2784.3800
      5093.58       2759.1393
      5095.67       2731.6096
      5097.75       2726.8686
      5099.83       2729.6664
      5101.91       2729.9512
      5103.99       2730.2399
      5106.07       2733.0439
      5108.15       2735.8515
      5110.24       2736.1437
      5112.32       2733.9160
      5114.40       2746.8282
      5116.48       2767.4385
      5118.56       2770.2886
      5120.64       2735.0908
      5122.72       2715.3059
      5124.81       2720.6086
      5126.89       2735.9826
      5128.97       2746.3810
      5131.05       2741.6264
      5133.13       2734.3623
      5135.21       2729.6298
      5137.29       2732.4494
      5139.38       2730.2364
      5141.46       2728.0262
      5143.54       2715.7936
      5145.62       2698.6435
      5147.70       2679.1332
      5149.78       2681.9032
      5151.86       2699.5529
      5153.94       2712.3222
      5156.03       2710.1327
      5158.11       2710.4420
      5160.19       2708.2562
      5162.27       2701.0904
      5164.35       2696.4307
      5166.43       2696.7396
      5168.51       2704.5151
      5170.60       2717.3125
      5172.68       2732.6875
      5174.76       2730.4894
      5176.84       2715.7589
      5178.92       2706.0905
      5181.00       2701.4263
      5183.08       2704.2339
      5185.17       2694.6067
      5187.25       2699.8955
      5189.33       2707.6863
      5191.41       2710.5057
      5193.49       2715.8261
      5195.57       2716.1518
      5197.65       2701.5069
      5199.73       2691.8959
      5201.82       2697.1851
      5203.90       2704.9746
      5205.98       2697.8382
      5208.06       2680.8273
      5210.14       2651.6829
      5212.22       2627.6934
      5214.30       2637.7155
      5216.39       2662.4485
      5218.47       2675.0685
      5220.55       2668.0170
      5222.63       2670.8059
      5224.71       2676.0630
      5226.79       2676.3950
      5228.87       2671.8040
      5230.96       2669.6779
      5233.04       2655.2984
      5235.12       2633.7088
      5237.20       2626.7729
      5239.28       2646.5334
      5241.36       2654.1915
      5243.44       2656.9768
      5245.52       2657.3137
      5247.61       2660.1012
      5249.69       2645.7799
      5251.77       2629.1149
      5253.85       2619.7827
      5255.93       2624.9521
      5258.01       2615.6362
      5260.09       2608.7569
      5262.18       2604.2956
      5264.26       2623.8963
      5266.34       2646.0808
      5268.42       2653.7505
      5270.50       2644.3376
      5272.58       2634.9591
      5274.66       2635.3070
      5276.75       2623.5456
      5278.83       2619.0632
      5280.91       2650.9621
      5282.99       2648.8740
      5285.07       2627.3564
      5287.15       2610.8213
      5289.23       2606.3646
      5291.31       2616.3356
      5293.40       2614.2782
      5295.48       2621.8670
      5297.56       2629.4758
      5299.64       2629.8327
      5301.72       2608.4767
      5303.80       2592.0645
      5305.88       2585.2654
      5307.97       2592.7742
      5310.05       2605.0974
      5312.13       2619.8933
      5314.21       2625.0854
      5316.29       2620.6144
      5318.37       2599.3419
      5320.45       2585.3747
      5322.53       2576.2244
      5324.62       2574.2106
      5326.70       2572.1992
      5328.78       2598.7550
      5330.86       2601.5134
      5332.94       2589.9243
      5335.02       2566.5414
      5337.10       2555.1076
      5339.19       2548.4173
      5341.27       2555.8299
      5343.35       2577.4700
      5345.43       2580.2117
      5347.51       2561.6346
      5349.59       2543.1921
      5351.67       2538.8764
      5353.76       2534.5661
      5355.84       2537.2654
      5357.92       2537.6320
      5360.00       2535.6614
      5362.08       2536.0270
      5364.16       2529.3958
      5366.24       2525.1085
      5368.32       2525.4748
      5370.41       2528.1698
      5372.49       2549.5864
      5374.57       2571.1858
      5376.65       2576.3046
      5378.73       2567.2076
      5380.81       2558.1430
      5382.89       2570.3311
      5384.98       2565.9795
      5387.06       2549.8679
      5389.14       2538.5279
      5391.22       2550.6256
      5393.30       2555.7097
      5395.38       2551.3866
      5397.46       2540.0446
      5399.55       2526.4250
      5401.63       2529.1328
      5403.71       2543.5306
      5405.79       2555.6557
      5407.87       2546.6440
      5409.95       2551.7240
      5412.03       2559.1745
      5414.11       2557.2071
      5416.20       2543.5014
      5418.28       2522.8890
      5420.36       2520.9518
      5422.44       2525.9872
      5424.52       2531.0338
      5426.60       2508.2152
      5428.68       2499.3764
      5430.77       2495.1605
      5432.85       2495.5474
      5434.93       2486.7554
      5437.01       2494.0223
      5439.09       2492.1138
      5441.17       2481.0512
      5443.25       2463.2217
      5445.33       2461.3394
      5447.42       2470.8113
      5449.50       2468.9242
      5451.58       2451.1852
      5453.66       2431.3327
      5455.74       2427.2424
      5457.82       2436.5871
      5459.90       2441.4648
      5461.99       2448.6102
      5464.07       2444.4919
      5466.15       2438.1355
      5468.23       2436.2800
      5470.31       2429.9464
      5472.39       2428.0982
      5474.47       2415.1047
      5476.56       2406.6096
      5478.64       2413.6565
      5480.72       2420.7273
      5482.80       2434.5350
      5484.88       2439.4175
      5486.96       2430.8426
      5489.04       2422.2963
      5491.12       2418.2315
      5493.21       2416.3992
      5495.29       2410.1255
      5497.37       2437.3112
      5499.45       2455.7383
      5501.53       2460.6708
      5503.61       2445.2585
      5505.69       2443.4099
      5507.78       2452.8338
      5509.86       2469.1081
      5511.94       2469.5156
      5514.02       2458.5783
      5516.10       2449.9437
      5518.18       2450.3525
      5520.26       2437.2552
      5522.35       2421.9976
      5524.43       2417.9442
      5526.51       2411.6770
      5528.59       2392.1692
      5530.67       2372.8225
      5532.75       2360.1431
      5534.83       2362.7162
      5536.92       2369.6540
      5539.00       2380.9959
      5541.08       2381.3987
      5543.16       2370.8608
      5545.24       2358.1961
      5547.32       2360.7715
      5549.40       2367.7069
      5551.48       2387.8240
      5553.57       2410.3329
      5555.65       2433.0521
      5557.73       2442.4521
      5559.81       2445.1237
      5561.89       2434.3096
      5563.97       2414.6308
      5566.05       2395.1112
      5568.14       2380.1323
      5570.22       2373.9774
      5572.30       2370.0195
      5574.38       2368.2497
      5576.46       2383.9847
      5578.54       2386.5978
      5580.62       2387.0162
      5582.71       2389.6343
      5584.79       2385.6542
      5586.87       2368.5574
      5588.95       2351.5832
      5591.03       2349.8327
      5593.11       2361.0973
      5595.19       2365.8675
      5597.27       2359.7576
      5599.36       2353.6645
      5601.44       2351.9157
      5603.52       2354.5015
      5605.60       2363.6137
      5607.68       2368.3949
      5609.76       2366.6380
      5611.84       2362.7047
      5613.93       2356.6083
      5616.01       2348.3638
      5618.09       2350.9501
      5620.17       2355.7097
      5622.25       2347.4703
      5624.33       2330.6582
      5626.41       2320.3707
      5628.50       2310.1288
      5630.58       2306.2951
      5632.66       2296.1172
      5634.74       2277.5765
      5636.82       2263.3532
      5638.90       2255.4417
      5640.98       2255.8550
      5643.06       2250.0413
      5645.15       2246.3135
      5647.23       2248.7963
      5649.31       2261.6743
      5651.39       2283.0213
      5653.47       2296.0966
      5655.55       2294.4068
      5657.63       2282.1864
      5659.72       2284.7128
      5661.80       2278.8319
      5663.88       2275.0600
      5665.96       2273.3891
      5668.04       2267.5392
      5670.12       2261.7052
      5672.20       2249.6613
      5674.29       2235.6213
      5676.37       2219.6257
      5678.45       2222.0880
      5680.53       2224.5554
      5682.61       2224.9736
      5684.69       2219.2530
      5686.77       2217.6287
      5688.85       2211.9284
      5690.94       2208.2751
      5693.02       2198.5468
      5695.10       2198.9652
      5697.18       2209.5344
      5699.26       2228.3512
      5701.34       2222.6266
      5703.42       2221.0047
      5705.51       2221.4286
      5707.59       2219.8087
      5709.67       2214.1088
      5711.75       2212.4953
      5713.83       2219.0432
      5715.91       2219.4717
      5717.99       2205.6345
      5720.08       2206.0593
      5722.16       2218.7135
      5724.24       2229.3873
      5726.32       2227.7668
      5728.40       2217.9607
      5730.48       2212.2711
      5732.56       2204.5649
      5734.64       2194.8642
      5736.73       2195.2935
      5738.81       2199.7700
      5740.89       2204.2579
      5742.97       2206.7212
      5745.05       2213.2631
      5747.13       2215.7376
      5749.21       2220.2588
      5751.30       2222.7443
      5753.38       2208.8946
      5755.46       2203.2355
      5757.54       2209.7682
      5759.62       2218.3639
      5761.70       2212.6824
      5763.78       2200.9253
      5765.87       2185.2024
      5767.95       2173.5928
      5770.03       2168.0277
      5772.11       2168.4618
      5774.19       2168.8943
      5776.27       2167.3315
      5778.35       2151.8524
      5780.43       2142.3960
      5782.52       2146.7780
      5784.60       2153.1510
      5786.68       2153.5857
      5788.76       2144.1223
      5790.84       2138.6383
      5792.92       2129.2433
      5795.00       2129.6738
      5797.09       2136.0009
      5799.17       2140.3725
      5801.25       2138.8369
      5803.33       2135.3363
      5805.41       2137.7393
      5807.49       2132.2765
      5809.57       2140.5840
      5811.65       2150.9040
      5813.74       2167.2544
      5815.82       2181.7207
      5817.90       2190.2235
      5819.98       2186.6414
      5822.06       2193.1443
      5824.14       2197.6398
      5826.22       2206.2068
      5828.31       2202.6029
      5830.39       2194.9567
      5832.47       2179.2945
      5834.55       2171.7307
      5836.63       2168.1852
      5838.71       2156.6845
      5840.79       2139.3259
      5842.88       2124.0634
      5844.96       2122.5506
      5847.04       2128.8680
      5849.12       2131.2752
      5851.20       2118.0233
      5853.28       2104.8539
      5855.36       2103.3577
      5857.44       2103.7990
      5859.53       2100.3703
      5861.61       2089.2350
      5863.69       2070.5164
      5865.77       2057.6455
      5867.85       2048.6256
      5869.93       2032.1434
      5872.01       2010.2336
      5874.10       1983.0734
      5876.18       1959.8868
      5878.26       1960.3027
      5880.34       1973.4034
      5882.42       1977.4639
      5884.50       1970.6120
      5886.58       1956.5639
      5888.67       1931.9095
      5890.75       1919.9062
      5892.83       1916.7832
      5894.91       1920.7301
      5896.99       1922.9133
      5899.07       1939.3369
      5901.15       1961.3135
      5903.23       1987.1952
      5905.32       2011.5660
      5907.40       2034.3629
      5909.48       2044.1945
      5911.56       2054.0762
      5913.64       2060.2064
      5915.72       2043.6424
      5917.80       2019.7580
      5919.89       2001.6768
      5921.97       1996.5890
      5924.05       1991.5148
      5926.13       1990.1160
      5928.21       1996.0583
      5930.29       2011.2605
      5932.37       2011.7021
      5934.46       2004.7440
      5936.54       2018.1546
      5938.62       2027.9152
      5940.70       2013.4713
      5942.78       1997.2912
      5944.86       1988.5520
      5946.94       1994.4962
      5949.02       2005.9922
      5951.11       2002.7431
      5953.19       1993.9839
      5955.27       1979.7849
      5957.35       1980.2239
      5959.43       1982.4909
      5961.51       1981.1066
      5963.59       1970.6280
      5965.68       1952.9954
      5967.76       1928.4056
      5969.84       1918.2071
      5971.92       1927.4934
      5974.00       1938.6092
      5976.08       1940.8305
      5978.16       1939.4793
      5980.25       1938.1296
      5982.33       1942.1388
      5984.41       1960.5520
      5986.49       1975.4967
      5988.57       1979.5863
      5990.65       1960.0740
      5992.73       1935.3995
      5994.81       1926.9438
      5996.90       1930.9353
      5998.98       1934.9349
      6001.06       1922.9359
      6003.14       1905.7404
      6005.22       1890.4381
      6007.30       1889.1283
      6009.38       1898.2823
      6011.47       1907.4793
      6013.55       1909.6734
      6015.63       1904.8404
      6017.71       1907.0323
      6019.79       1923.3476
      6021.87       1941.5911
      6023.95       1943.8265
      6026.04       1926.4492
      6028.12       1921.5746
      6030.20       1918.4814
      6032.28       1915.3924
      6034.36       1901.7703
      6036.44       1891.7273
      6038.52       1885.2084
      6040.60       1882.1743
      6042.69       1887.8197
      6044.77       1893.4839
      6046.85       1895.6691
      6048.93       1896.1096
      6051.01       1893.0618
      6053.09       1895.2481
      6055.17       1893.9453
      6057.26       1885.6845
      6059.34       1874.0037
      6061.42       1874.4432
      6063.50       1869.7094
      6065.58       1856.4193
      6067.66       1831.3767
      6069.74       1821.7136
      6071.83       1813.7695
      6073.91       1812.5264
      6075.99       1816.2972
      6078.07       1828.4771
      6080.15       1828.9082
      6082.23       1822.6135
      6084.31       1819.6906
      6086.40       1838.6561
      6088.48       1844.1806
      6090.56       1834.4526
      6092.64       1808.0483
      6094.72       1800.1679
      6096.80       1803.9170
      6098.88       1814.3459
      6100.96       1823.1563
      6103.05       1832.0084
      6105.13       1837.5163
      6107.21       1832.8848
      6109.29       1818.1906
      6111.37       1806.9385
      6113.45       1814.0432
      6115.53       1824.5341
      6117.62       1824.9735
      6119.70       1813.6809
      6121.78       1815.7894
      6123.86       1824.6115
      6125.94       1831.7882
      6128.02       1825.4929
      6130.10       1814.1991
      6132.18       1804.6395
      6134.27       1798.4384
      6136.35       1792.2589
      6138.43       1779.5338
      6140.51       1766.8992
      6142.59       1754.3548
      6144.67       1746.7201
      6146.75       1742.3251
      6148.84       1745.9620
      6150.92       1751.2218
      6153.00       1754.8782
      6155.08       1747.2433
      6157.16       1739.6417
      6159.24       1732.0719
      6161.32       1729.3094
      6163.41       1728.1417
      6165.49       1722.2097
      6167.57       1711.5634
      6169.65       1700.9819
      6171.73       1699.8350
      6173.81       1701.8206
      6175.89       1705.3798
      6177.97       1708.9468
      6180.06       1710.9443
      6182.14       1712.9450
      6184.22       1711.7921
      6186.30       1709.0648
      6188.38       1717.3807
      6190.46       1732.1064
      6192.54       1748.5676
      6194.63       1763.5618
      6196.71       1772.1426
      6198.79       1769.3236
      6200.87       1756.7730
      6202.95       1737.8963
      6205.03       1735.1329
      6207.11       1732.3724
      6209.20       1724.8451
      6211.28       1711.0350
      6213.36       1695.7739
      6215.44       1689.9622
      6217.52       1695.0652
      6219.60       1706.4573
      6221.68       1705.3159
      6223.76       1702.6073
      6225.85       1703.0361
      6227.93       1705.0359
      6230.01       1700.7611
      6232.09       1694.9365
      6234.17       1689.1310
      6236.25       1684.8971
      6238.33       1688.4310
      6240.42       1684.1999
      6242.50       1672.2606
      6244.58       1655.8246
      6246.66       1639.5519
      6248.74       1623.4378
      6250.82       1622.3570
      6252.90       1633.2663
      6254.98       1648.8010
      6257.07       1653.7853
      6259.15       1657.2588
      6261.23       1662.2696
      6263.31       1664.2274
      6265.39       1658.5338
      6267.47       1645.2646
      6269.55       1629.0981
      6271.64       1614.5778
      6273.72       1606.0933
      6275.80       1588.8494
      6277.88       1570.3438
      6279.96       1557.7818
      6282.04       1556.7497
      6284.12       1555.7187
      6286.21       1554.6887
      6288.29       1553.6595
      6290.37       1564.1147
      6292.45       1586.2847
      6294.53       1613.2214
      6296.61       1634.5827
      6298.69       1631.9981
      6300.77       1626.4197
      6302.86       1622.3545
      6304.94       1622.7780
      6307.02       1621.7074
      6309.10       1631.1197
      6311.18       1643.6118
      6313.26       1656.2002
      6315.34       1659.6885
      6317.43       1660.1242
      6319.51       1659.0308
      6321.59       1657.9385
      6323.67       1646.1997
      6325.75       1630.0336
      6327.83       1618.4928
      6329.91       1612.9655
      6332.00       1611.9052
      6334.08       1606.4010
      6336.16       1602.3916
      6338.24       1602.8153
      6340.32       1606.1943
      6342.40       1602.1863
      6344.48       1599.6620
      6346.56       1597.1408
      6348.65       1593.1565
      6350.73       1596.5179
      6352.81       1608.7521
      6354.89       1622.5746
      6356.97       1627.4970
      6359.05       1599.6905
      6361.13       1581.0720
      6363.22       1571.3297
      6365.30       1573.1972
      6367.38       1573.6180
      6369.46       1568.2504
      6371.54       1562.9011
      6373.62       1559.0064
      6375.70       1549.4032
      6377.79       1548.3921
      6379.87       1551.6639
      6381.95       1553.5107
      6384.03       1543.9413
      6386.11       1534.4328
      6388.19       1532.0208
      6390.27       1536.6747
      6392.35       1555.6040
      6394.44       1568.9748
      6396.52       1573.7424
      6398.60       1569.8244
      6400.68       1567.3587
      6402.76       1566.3401
      6404.84       1571.0992
      6406.92       1578.7798
      6409.01       1589.4221
      6411.09       1584.0084
      6413.17       1578.6123
      6415.25       1573.2346
      6417.33       1572.2141
      6419.41       1565.4174
      6421.49       1560.0858
      6423.58       1557.6404
      6425.66       1562.3766
      6427.74       1559.9268
      6429.82       1558.9173
      6431.90       1562.2194
      6433.98       1572.7552
      6436.06       1577.5390
      6438.15       1572.1686
      6440.23       1562.4945
      6442.31       1554.3107
      6444.39       1541.9032
      6446.47       1539.4899
      6448.55       1545.5978
      6450.63       1561.7656
      6452.71       1563.6371
      6454.80       1561.1896
      6456.88       1557.3121
      6458.96       1554.8755
      6461.04       1559.6099
      6463.12       1560.0411
      6465.20       1550.4456
      6467.28       1533.8281
      6469.37       1520.1879
      6471.45       1517.8123
      6473.53       1519.6329
      6475.61       1522.8574
      6477.69       1526.0901
      6479.77       1532.1498
      6481.85       1533.9888
      6483.94       1530.1830
      6486.02       1517.9745
      6488.10       1512.8157
      6490.18       1507.6735
      6492.26       1503.9344
      6494.34       1509.9081
      6496.42       1521.5005
      6498.50       1524.7336
      6500.59       1522.3541
      6502.67       1515.7854
      6504.75       1503.6945
      6506.83       1497.2069
      6508.91       1500.3900
      6510.99       1517.4915
      6513.07       1523.5217
      6515.16       1521.1464
      6517.24       1514.5850
      6519.32       1502.5060
      6521.40       1491.8972
      6523.48       1484.0962
      6525.56       1476.3352
      6527.64       1468.6148
      6529.73       1460.9352
      6531.81       1453.2961
      6533.89       1448.3624
      6535.97       1448.7744
      6538.05       1461.2493
      6540.13       1465.7089
      6542.21       1459.3904
      6544.29       1442.4313
      6546.38       1415.2029
      6548.46       1389.7691
      6550.54       1366.0504
      6552.62       1346.4511
      6554.70       1324.6914
      6556.78       1304.4848
      6558.86       1278.6846
      6560.95       1246.4877
      6563.03       1211.7477
      6565.11       1204.3065
      6567.19       1224.7902
      6569.27       1268.7798
      6571.35       1324.0704
      6573.43       1360.3050
      6575.52       1373.2865
      6577.60       1369.8920
      6579.68       1370.2862
      6581.76       1380.8196
      6583.84       1391.4327
      6585.92       1403.4202
      6588.00       1424.6658
      6590.08       1436.9403
      6592.17       1442.6615
      6594.25       1445.7406
      6596.33       1452.8342
      6598.41       1462.6561
      6600.49       1465.7773
      6602.57       1463.5054
      6604.65       1457.2053
      6606.74       1463.0080
      6608.82       1470.1894
      6610.90       1473.3296
      6612.98       1466.9869
      6615.06       1463.3658
      6617.14       1465.1418
      6619.22       1470.9791
      6621.30       1478.2016
      6623.39       1493.6908
      6625.47       1496.8817
      6627.55       1489.0684
      6629.63       1474.4912
      6631.71       1470.8540
      6633.79       1472.6414
      6635.87       1474.4309
      6637.96       1477.5839
      6640.04       1475.2978
      6642.12       1475.7324
      6644.20       1485.7142
      6646.28       1499.9039
      6648.36       1497.5844
      6650.44       1487.0291
      6652.53       1476.5482
      6654.61       1472.9093
      6656.69       1476.0603
      6658.77       1471.0683
      6660.85       1459.3560
      6662.93       1447.7385
      6665.01       1442.8417
      6667.09       1437.9621
      6669.18       1427.8293
      6671.26       1413.8559
      6673.34       1407.7786
      6675.42       1400.4366
      6677.50       1385.4563
      6679.58       1366.8540
      6681.66       1353.4786
      6683.75       1362.6397
      6685.83       1380.7351
      6687.91       1402.9435
      6689.99       1424.1957
      6692.07       1445.7710
      6694.15       1466.3221
      6696.23       1478.9702
      6698.32       1480.7762
      6700.40       1466.2901
      6702.48       1453.2816
      6704.56       1444.3759
      6706.64       1443.4797
      6708.72       1449.2430
      6710.80       1455.0296
      6712.88       1460.8396
      6714.97       1466.6716
      6717.05       1463.0656
      6719.13       1450.0893
      6721.21       1435.9047
      6723.29       1424.4819
      6725.37       1423.6002
      6727.45       1427.9704
      6729.54       1432.3542
      6731.62       1436.7528
      6733.70       1442.4914
      6735.78       1444.2591
      6737.86       1440.7094
      6739.94       1433.2056
      6742.02       1438.9309
      6744.10       1446.0126
      6746.19       1450.4539
      6748.27       1448.2255
      6750.35       1442.0095
      6752.43       1441.1205
      6754.51       1440.2324
      6756.59       1438.0210
      6758.67       1433.1696
      6760.76       1425.7065
      6762.84       1416.9774
      6764.92       1409.5990
      6767.00       1415.2347
      6769.08       1423.5126
      6771.16       1423.9477
      6773.24       1415.2309
      6775.33       1400.1047
      6777.41       1394.0985
      6779.49       1399.6738
      6781.57       1409.1601
      6783.65       1418.7099
      6785.73       1419.1467
      6787.81       1420.8911
      6789.90       1429.2050
      6791.98       1448.1997
      6794.06       1458.0153
      6796.14       1447.7583
      6798.22       1428.3351
      6800.30       1406.5796
      6802.38       1392.8309
      6804.46       1390.6982
      6806.55       1398.8374
      6808.63       1413.5192
      6810.71       1427.0398
      6812.79       1428.7974
      6814.87       1430.5572
      6816.95       1436.2831
      6819.03       1450.0226
      6821.12       1462.5468
      6823.20       1460.3099
      6825.28       1442.0486
      6827.36       1405.7732
      6829.44       1372.9360
      6831.52       1358.2688
      6833.60       1362.4514
      6835.69       1381.8358
      6837.77       1397.6299
      6839.85       1403.2270
      6841.93       1401.0817
      6844.01       1393.7960
      6846.09       1390.3854
      6848.17       1397.2411
      6850.25       1406.7183
      6852.34       1404.5705
      6854.42       1374.2933
      6856.50       1350.8771
      6858.58       1333.9896
      6860.66       1322.1739
      6862.74       1285.3614
      6864.82       1233.5648
      6866.91       1179.5015
      6868.99       1135.1027
      6871.07       1127.1248
      6873.15       1141.0621
      6875.23       1168.0083
      6877.31       1202.2180
      6879.39       1234.0151
      6881.48       1251.5773
      6883.56       1257.7514
      6885.64       1254.6780
      6887.72       1256.2316
      6889.80       1265.9227
      6891.88       1275.6901
      6893.96       1278.4466
      6896.04       1276.4994
      6898.13       1274.5544
      6900.21       1270.2716
      6902.29       1266.0025
      6904.37       1266.4044
      6906.45       1266.8079
      6908.53       1268.3790
      6910.61       1274.6401
      6912.70       1293.9744
      6914.78       1324.5374
      6916.86       1353.3274
      6918.94       1376.3902
      6921.02       1384.4597
      6923.10       1378.5396
      6925.18       1363.8228
      6927.27       1343.0648
      6929.35       1322.6232
      6931.43       1314.5450
      6933.51       1314.9657
      6935.59       1322.6767
      6937.67       1335.3446
      6939.75       1343.1756
      6941.83       1344.8453
      6943.92       1341.5658
      6946.00       1333.3722
      6948.08       1321.5734
      6950.16       1324.4367
      6952.24       1335.8904
      6954.32       1347.4447
      6956.40       1355.3486
      6958.49       1367.0716
      6960.57       1380.1661
      6962.65       1395.9564
      6964.73       1408.0315
      6966.81       1409.7846
      6968.89       1399.8880
      6970.97       1382.4001
      6973.06       1372.6962
      6975.14       1378.2098
      6977.22       1387.5744
      6979.30       1391.8649
      6981.38       1379.5524
      6983.46       1357.3104
      6985.54       1341.5915
      6987.62       1337.0925
      6989.71       1348.6611
      6991.79       1359.0774
      6993.87       1367.0539
      6995.95       1373.8122
      6998.03       1378.0626
      7000.11       1379.7822
      7002.19       1382.7779
      7004.28       1385.7804
      7006.36       1383.6816
      7008.44       1362.6310
      7010.52       1349.3365
      7012.60       1348.5356
      7014.68       1358.9535
      7016.76       1353.1533
      7018.85       1344.8986
      7020.93       1337.9258
      7023.01       1334.6721
      7025.09       1327.7528
      7027.17       1317.2243
      7029.25       1307.9841
      7031.33       1304.8045
      7033.41       1322.1724
      7035.50       1343.4804
      7037.58       1360.1112
      7039.66       1360.5587
      7041.74       1338.6309
      7043.82       1331.6930
      7045.90       1332.1320
      7047.98       1338.7237
      7050.07       1333.0136
      7052.15       1330.9999
      7054.23       1328.9896
      7056.31       1324.5416
      7058.39       1315.2534
      7060.47       1303.6261
      7062.55       1289.7251
      7064.63       1274.7975
      7066.72       1265.8590
      7068.80       1265.1136
      7070.88       1276.0684
      7072.96       1300.2242
      7075.04       1324.8375
      7077.12       1326.4995
      7079.20       1322.0624
      7081.29       1320.0684
      7083.37       1329.0501
      7085.45       1335.6294
      7087.53       1341.0067
      7089.61       1345.1657
      7091.69       1348.0962
      7093.77       1349.7893
      7095.86       1356.4737
      7097.94       1363.1901
      7100.02       1354.8836
      7102.10       1341.6748
      7104.18       1333.4986
      7106.26       1327.8170
      7108.34       1325.8173
      7110.42       1337.3021
      7112.51       1342.6887
      7114.59       1341.9032
      7116.67       1328.8228
      7118.75       1312.2399
      7120.83       1309.0594
      7122.91       1313.1230
      7124.99       1318.4136
      7127.08       1321.2899
      7129.16       1318.0872
      7131.24       1308.8521
      7133.32       1296.0968
      7135.40       1294.1478
      7137.48       1294.5853
      7139.56       1298.6058
      7141.65       1302.6389
      7143.73       1297.0929
      7145.81       1293.9518
      7147.89       1288.4430
      7149.97       1281.7766
      7152.05       1277.4955
      7154.13       1282.6455
      7156.21       1291.3793
      7158.30       1296.5857
      7160.38       1285.1351
      7162.46       1269.1021
      7164.54       1255.5787
      7166.62       1244.4909
      7168.70       1232.3651
      7170.78       1224.8627
      7172.87       1217.4052
      7174.95       1206.6552
      7177.03       1188.3143
      7179.11       1175.6543
      7181.19       1166.3467
      7183.27       1160.3151
      7185.35       1153.2527
      7187.44       1162.1785
      7189.52       1170.0961
      7191.60       1171.5748
      7193.68       1162.3007
      7195.76       1153.1004
      7197.84       1151.3732
      7199.92       1150.7075
      7202.00       1145.8138
      7204.09       1152.5587
      7206.17       1171.1487
      7208.25       1188.9436
      7210.33       1193.7420
      7212.41       1195.2528
      7214.49       1200.0772
      7216.57       1208.2543
      7218.66       1215.3683
      7220.74       1211.3169
      7222.82       1210.6190
      7224.90       1213.2684
      7226.98       1219.2897
      7229.06       1216.3453
      7231.14       1214.5256
      7233.23       1206.0260
      7235.31       1189.8900
      7237.39       1170.7304
      7239.47       1163.6098
      7241.55       1160.8009
      7243.63       1159.0654
      7245.71       1163.7467
      7247.79       1174.9215
      7249.88       1182.9314
      7251.96       1184.4322
      7254.04       1172.8996
      7256.12       1156.1440
      7258.20       1142.7804
      7260.28       1134.7854
      7262.36       1135.1796
      7264.45       1148.1956
      7266.53       1168.8716
      7268.61       1191.0173
      7270.69       1205.7835
      7272.77       1205.0936
      7274.85       1199.9753
      7276.93       1189.3889
      7279.02       1170.2414
      7281.10       1160.9859
      7283.18       1156.0558
      7285.26       1154.3322
      7287.34       1157.9308
      7289.42       1170.1313
      7291.50       1179.1974
      7293.58       1183.9645
      7295.67       1185.4706
      7297.75       1188.0730
      7299.83       1186.3020
      7301.91       1182.3541
      7303.99       1179.5057
      7306.07       1174.4990
      7308.15       1171.6701
      7310.24       1173.1619
      7312.32       1177.9063
      7314.40       1179.4064
      7316.48       1184.1763
      7318.56       1190.0609
      7320.64       1195.9757
      7322.72       1196.3967
      7324.81       1194.6168
      7326.89       1189.5469
      7328.97       1184.4999
      7331.05       1183.8273
      7333.13       1189.7123
      7335.21       1196.7282
      7337.29       1200.4634
      7339.38       1196.4718
      7341.46       1193.5930
      7343.54       1194.0161
      7345.62       1196.6406
      7347.70       1197.0653
      7349.78       1194.1857
      7351.86       1190.2162
      7353.94       1187.3536
      7356.03       1185.5887
      7358.11       1180.5612
      7360.19       1179.8935
      7362.27       1183.5785
      7364.35       1187.2764
      7366.43       1187.6984
      7368.51       1184.8432
      7370.60       1179.8198
      7372.68       1169.4198
      7374.76       1173.0735
      7376.84       1175.6558
      7378.92       1174.9926
      7381.00       1170.0110
      7383.08       1180.1715
      7385.17       1187.1353
      7387.25       1188.6540
      7389.33       1184.7072
      7391.41       1186.2231
      7393.49       1192.1246
      7395.57       1194.7506
      7397.65       1192.9787
      7399.73       1186.8294
      7401.82       1185.0705
      7403.90       1188.7756
      7405.98       1197.9969
      7408.06       1216.2188
      7410.14       1216.6561
      7412.22       1208.1585
      7414.30       1195.3080
      7416.39       1189.1481
      7418.47       1192.8683
      7420.55       1203.2308
      7422.63       1214.8011
      7424.71       1216.3585
      7426.79       1207.8644
      7428.87       1199.4296
      7430.95       1192.1521
      7433.04       1184.9177
      7435.12       1178.8131
      7437.20       1171.6612
      7439.28       1159.2009
      7441.36       1139.5040
      7443.44       1124.2762
      7445.52       1130.9155
      7447.61       1149.1778
      7449.69       1163.4414
      7451.77       1154.2558
      7453.85       1145.1421
      7455.93       1143.4497
      7458.01       1155.5125
      7460.09       1169.8557
      7462.18       1178.9351
      7464.26       1180.4499
      7466.34       1174.3713
      7468.42       1160.8157
      7470.50       1145.3054
      7472.58       1134.1727
      7474.66       1129.3730
      7476.74       1141.2890
      7478.83       1161.8596
      7480.91       1184.9829
      7482.99       1204.1216
      7485.07       1205.6718
      7487.15       1187.3734
      7489.23       1165.0541
      7491.31       1145.2619
      7493.40       1139.3667
      7495.48       1139.7827
      7497.56       1143.3552
      7499.64       1146.9381
      7501.72       1145.2460
      7503.80       1146.7211
      7505.88       1154.5614
      7507.97       1164.5986
      7510.05       1169.3260
      7512.13       1160.0981
      7514.21       1150.9433
      7516.29       1146.0763
      7518.37       1149.6692
      7520.45       1152.2126
      7522.53       1148.3972
      7524.62       1140.3859
      7526.70       1131.3888
      7528.78       1139.1252
      7530.86       1147.9730
      7532.94       1152.6337
      7535.02       1144.5937
      7537.10       1123.0827
      7539.19       1111.1482
      7541.27       1106.4504
      7543.35       1106.8594
      7545.43       1101.1659
      7547.51       1088.4617
      7549.59       1075.9043
      7551.67       1067.4178
      7553.75       1083.6644
      7555.84       1092.0834
      7557.92       1098.5416
      7560.00       1106.0561
      7562.08       1127.0365
      7564.16       1133.7021
      7566.24       1128.9121
      7568.32       1114.8617
      7570.41       1107.0882
      7572.49       1106.4796
      7574.57       1108.9317
      7576.65       1108.3226
      7578.73       1099.5825
      7580.81       1086.8992
      7582.89       1070.4109
      7584.98       1044.5089
      7587.06       999.70954
      7589.14       937.63951
      7591.22       859.40479
      7593.30       769.76739
      7595.38       670.07218
      7597.46       573.16985
      7599.54       491.63826
      7601.63       426.78336
      7603.71       381.21480
      7605.79       373.36389
      7607.87       390.38628
      7609.95       428.99959
      7612.03       485.53375
      7614.11       539.48805
      7616.20       581.49283
      7618.28       605.21165
      7620.36       605.99624
      7622.44       584.83411
      7624.52       563.89123
      7626.60       549.23512
      7628.68       545.91055
      7630.77       559.86648
      7632.85       572.59489
      7634.93       582.92250
      7637.01       591.25379
      7639.09       608.60781
      7641.17       629.36233
      7643.25       649.62704
      7645.33       666.84938
      7647.42       688.32135
      7649.50       714.42240
      7651.58       742.87960
      7653.66       773.18326
      7655.74       809.92752
      7657.82       838.32046
      7659.90       863.72204
      7661.99       886.62128
      7664.07       913.48668
      7666.15       930.82127
      7668.23       938.05968
      7670.31       936.68715
      7672.39       935.31772
      7674.47       943.46033
      7676.56       954.30651
      7678.64       964.38957
      7680.72       969.20779
      7682.80       974.05110
      7684.88       979.82043
      7686.96       989.26149
      7689.04       1008.0358
      7691.12       1026.2213
      7693.21       1024.7214
      7695.29       1011.0460
      7697.37       995.71738
      7699.45       981.52441
      7701.53       974.68968
      7703.61       978.65970
      7705.69       996.31626
      7707.78       1012.4242
      7709.86       1013.7432
      7711.94       1004.8323
      7714.02       987.77793
      7716.10       985.42827
      7718.18       1002.2831
      7720.26       1026.0209
      7722.35       1043.5712
      7724.43       1044.9328
      7726.51       1039.5713
      7728.59       1031.3835
      7730.67       1020.4376
      7732.75       1004.0435
      7734.83       988.82376
      7736.92       983.75082
      7739.00       991.40567
      7741.08       1000.0413
      7743.16       1005.9685
      7745.24       1020.3540
      7747.32       1042.5996
      7749.40       1058.4841
      7751.48       1053.0550
      7753.57       1039.9624
      7755.65       1027.0336
      7757.73       1025.5373
      7759.81       1029.7185
      7761.89       1043.4837
      7763.97       1062.3133
      7766.05       1072.5562
      7768.14       1058.2468
      7770.22       1045.0918
      7772.30       1034.0033
      7774.38       1027.7539
      7776.46       1007.5270
      7778.54       994.08660
      7780.62       990.81315
      7782.71       1002.2120
      7784.79       1019.3596
      7786.87       1033.9395
      7788.95       1044.8718
      7791.03       1050.1003
      7793.11       1052.4437
      7795.19       1045.1218
      7797.27       1031.1814
      7799.36       1012.7523
      7801.44       1026.2936
      7803.52       1040.0151
      7805.60       1046.1838
      7807.68       1040.8218
      7809.76       1034.5346
      7811.84       1037.7994
      7813.93       1039.1590
      7816.01       1032.8823
      7818.09       1016.2944
      7820.17       1006.4408
      7822.25       1004.0540
      7824.33       1009.0815
      7826.41       1017.8770
      7828.50       1019.2114
      7830.58       1013.9892
      7832.66       1002.3109
      7834.74       991.68064
      7836.82       995.72811
      7838.90       1007.1874
      7840.98       1020.6571
      7843.06       1021.0549
      7845.15       1027.1138
      7847.23       1032.2584
      7849.31       1036.4723
      7851.39       1043.5843
      7853.47       1055.5956
      7855.55       1052.1248
      7857.63       1040.0091
      7859.72       1029.9283
      7861.80       1027.4887
      7863.88       1026.9449
      7865.96       1027.3476
      7868.04       1028.6972
      7870.12       1021.5459
      7872.20       1006.0701
      7874.28       987.18483
      7876.37       971.33453
      7878.45       974.40513
      7880.53       985.62105
      7882.61       997.88518
      7884.69       1007.5140
      7886.77       1000.5110
      7888.85       988.99170
      7890.94       977.60593
      7893.02       968.13226
      7895.10       969.40576
      7897.18       978.76077
      7899.26       981.85626
      7901.34       973.23733
      7903.42       943.60452
      7905.51       939.63977
      7907.59       952.21025
      7909.67       971.18964
      7911.75       960.89432
      7913.83       949.83275
      7915.91       951.96028
      7917.99       969.14833
      7920.07       993.02953
      7922.16       998.00735
      7924.24       990.16093
      7926.32       974.26615
      7928.40       963.05153
      7930.48       951.09017
      7932.56       941.87594
      7934.64       936.19346
      7936.73       935.70260
      7938.81       930.05840
      7940.89       923.59704
      7942.97       922.26296
      7945.05       934.60330
      7947.13       951.47981
      7949.21       967.77007
      7951.30       978.91492
      7953.38       982.91896
      7955.46       991.49493
      7957.54       1001.9889
      7959.62       1013.5286
      7961.70       1020.4906
      7963.78       1006.8890
      7965.86       990.72921
      7967.95       977.52539
      7970.03       971.63009
      7972.11       968.44305
      7974.19       960.83223
      7976.27       955.03808
      7978.35       951.90660
      7980.43       940.08593
      7982.52       929.26814
      7984.60       927.92911
      7986.68       936.88928
      7988.76       948.55373
      7990.84       963.90786
      7992.92       970.53117
      7995.00       967.34905
      7997.09       965.06632
      7999.17       960.13238
      8001.25       945.59505
      8003.33       926.14533
      8005.41       923.11029
      8007.49       914.17150
      8009.57       902.82115
      8011.65       894.07998
      8013.74       901.05369
      8015.82       914.79800
      8017.90       932.17969
      8019.98       952.52029
      8022.06       975.99742
      8024.14       988.15097
      8026.22       984.91311
      8028.31       970.00240
      8030.39       946.55884
      8032.47       935.66960
      8034.55       931.74609
      8036.63       931.26350
      8038.71       931.63944
      8040.79       938.90770
      8042.88       942.75342
      8044.96       938.80017
      8047.04       925.44092
      8049.12       903.90721
      8051.20       895.15771
      8053.28       897.99702
      8055.36       912.53672
      8057.44       910.38687
      8059.53       913.27488
      8061.61       922.09888
      8063.69       933.58365
      8065.77       920.29901
      8067.85       929.19122
      8069.93       948.59521
      8072.01       971.97872
      8074.10       973.26868
      8076.18       947.12905
      8078.26       917.45585
      8080.34       894.46138
      8082.42       889.07359
      8084.50       892.71759
      8086.58       898.02923
      8088.67       903.37267
      8090.75       916.31202
      8092.83       933.72697
      8094.91       954.98555
      8096.99       971.34498
      8099.07       961.94491
      8101.15       921.56759
      8103.23       899.29882
      8105.32       894.70719
      8107.40       897.54824
      8109.48       879.09275
      8111.56       864.99128
      8113.64       855.04549
      8115.72       844.43507
      8117.80       843.22553
      8119.89       846.68276
      8121.97       855.65397
      8124.05       873.52609
      8126.13       891.77080
      8128.21       886.40183
      8130.29       866.57976
      8132.37       843.30772
      8134.46       854.60138
      8136.54       864.45334
      8138.62       868.79890
      8140.70       863.56951
      8142.78       859.95424
      8144.86       861.09948
      8146.94       859.86686
      8149.02       852.33317
      8151.11       828.68164
      8153.19       810.89761
      8155.27       803.79259
      8157.35       807.09085
      8159.43       808.91132
      8161.51       820.50141
      8163.59       839.18564
      8165.68       856.71530
      8167.76       846.86687
      8169.84       824.88586
      8171.92       813.15333
      8174.00       808.26070
      8176.08       794.56616
      8178.16       781.82455
      8180.25       777.83629
      8182.33       778.15661
      8184.41       772.76268
      8186.49       771.65905
      8188.57       771.97711
      8190.65       773.72000
      8192.73       779.76373
      8194.81       788.02946
      8196.90       794.91720
      8198.98       801.86545
      8201.06       814.10565
      8203.14       826.53344
      8205.22       832.22387
      8207.30       838.72551
      8209.38       851.52949
      8211.47       863.73274
      8213.55       849.88308
      8215.63       818.72706
      8217.71       780.76293
      8219.79       771.79012
      8221.87       779.97264
      8223.95       791.87958
      8226.04       797.33263
      8228.12       788.16983
      8230.20       767.71515
      8232.28       755.40595
      8234.36       757.81143
      8236.44       767.96476
      8238.52       771.11986
      8240.60       778.57852
      8242.69       794.11466
      8244.77       801.79567
      8246.85       805.09020
      8248.93       810.63535
      8251.01       816.97031
      8253.09       809.81769
      8255.17       799.77549
      8257.26       792.77353
      8259.34       786.55748
      8261.42       774.66043
      8263.50       751.78325
      8265.58       739.73104
      8267.66       735.96155
      8269.74       726.83628
      8271.83       714.52562
      8273.91       706.96749
      8275.99       705.31151
      8278.07       710.17069
      8280.15       737.80969
      8282.23       759.49669
      8284.31       767.55167
      8286.39       755.94381
      8288.48       740.40836
      8290.56       738.67466
      8292.64       742.39562
      8294.72       742.70650
      8296.80       736.20592
      8298.88       730.43457
      8300.96       727.38386
      8303.05       728.35949
      8305.13       726.65478
      8307.21       734.36263
      8309.29       745.57778
      8311.37       754.87571
      8313.45       753.80292
      8315.53       747.20603
      8317.62       739.30423
      8319.70       734.18568
      8321.78       738.56488
      8323.86       743.65438
      8325.94       744.65295
      8328.02       742.22764
      8330.10       754.25792
      8332.18       773.57581
      8334.27       792.65849
      8336.35       809.22453
      8338.43       827.66028
      8340.51       835.67153
      8342.59       825.31284
      8344.67       801.68157
      8346.75       780.88191
      8348.84       789.89420
      8350.92       798.27492
      8353.00       797.87723
      8355.08       780.76319
      8357.16       799.28744
      8359.24       827.34527
      8361.32       857.96692
      8363.41       884.81907
      8365.49       846.91219
      8367.57       818.88370
      8369.65       805.01925
      8371.73       807.58865
      8373.81       810.91319
      8375.89       818.76319
      8377.97       829.74125
      8380.06       841.64090
      8382.14       854.49822
      8400.00       870.69000
      8450.00       857.25000
      8500.00       844.85999
      8550.00       831.92999
      8600.00       813.25000
      8650.00       801.65997
      8700.00       815.41998
      8750.00       761.38000
      8800.00       799.20001
      8850.00       734.73999
      8900.00       762.15002
      8950.00       732.44000
      9000.00       620.48999
      9050.00       674.71997
      9100.00       666.71002
      9150.00       648.01001
      9200.00       637.45001
      9250.00       607.21002
      9300.00       540.32001
      9350.00       410.39001
      9400.00       503.69000
      9450.00       460.00000
      9500.00       461.07999
      9550.00       428.56000
      9600.00       492.35999
      9650.00       526.46002
      9700.00       566.59998
      9750.00       547.53003
      9800.00       561.78003
      9850.00       572.20001
      9900.00       569.57001
      9950.00       558.70001
      10000.0       542.53003
      10050.0       506.39001
      10100.0       542.21997
