# This standard spectrum was made by Joe Hennawi by combining the
# http://www.ing.iac.es/Astronomy/observing/manuals/html_manuals/tech_notes/tn065-100/w1346a.oke spectrum which extends to 10640
# with the higher resolution spectrum on NAOJ website
# http://www.naoj.org/Observing/Instruments/FOCAS/Detail/UsersGuide/Observing/StandardStar/Spec/PLOTDATA/data/wolf1346.dat
# both of these files were in AB magnitudes. 
#      LAM            FLAM (1d-16)
      3125.97       2623.3174
      3128.05       2668.5308
      3130.14       2630.8389
      3132.22       2586.5242
      3134.30       2597.4040
      3136.38       2644.6160
      3138.47       2720.1069
      3140.55       2746.6916
      3142.63       2707.9100
      3144.71       2714.3059
      3146.79       2828.0300
      3148.88       2887.4172
      3150.96       2872.9964
      3153.04       2895.7519
      3155.12       2921.3809
      3157.21       2922.9076
      3159.29       2929.8296
      3161.37       3005.1774
      3163.45       3131.1077
      3165.53       3199.8290
      3167.62       3186.8048
      3169.70       3078.8217
      3171.78       2941.8082
      3173.86       2894.9700
      3175.95       2864.6706
      3178.03       2819.0647
      3180.11       2820.5651
      3182.19       2853.4347
      3184.27       2908.0341
      3186.36       2985.6019
      3188.44       3110.7446
      3190.52       3141.2125
      3192.60       3137.1164
      3194.69       3115.7608
      3196.77       3077.5031
      3198.85       3036.9153
      3200.93       3052.5828
      3203.02       3088.1798
      3205.10       3078.4930
      3207.18       2982.4561
      3209.26       2929.6142
      3211.34       2931.2105
      3213.43       2995.5999
      3215.51       2972.4954
      3217.59       2874.4777
      3219.67       2813.1759
      3221.76       2838.1515
      3223.84       2948.9954
      3225.92       2961.5118
      3228.00       2925.1824
      3230.08       2910.6698
      3232.17       3094.8038
      3234.25       3056.8469
      3236.33       2999.9544
      3238.41       2974.1016
      3240.50       3019.9358
      3242.58       3004.9657
      3244.66       2938.2045
      3246.74       2888.8480
      3248.83       2930.6764
      3250.91       2862.9336
      3252.99       2809.6685
      3255.07       2785.4767
      3257.15       2792.1833
      3259.24       2732.6794
      3261.32       2714.1518
      3263.40       2756.0025
      3265.48       2837.4326
      3267.57       2818.2014
      3269.65       2793.9495
      3271.73       2787.8268
      3273.81       2784.2820
      3275.90       2719.9492
      3277.98       2652.2158
      3280.06       2668.4403
      3282.14       2742.2431
      3284.22       2807.7288
      3286.31       2858.9369
      3288.39       2871.1396
      3290.47       2859.5965
      3292.55       2842.8583
      3294.64       2862.8989
      3296.72       2843.5273
      3298.80       2834.7099
      3300.88       2865.2379
      3302.96       2906.7857
      3305.05       2919.2108
      3307.13       2899.4695
      3309.21       2861.3542
      3311.29       2821.1443
      3313.38       2888.5469
      3315.46       2916.9821
      3317.54       2875.9970
      3319.62       2778.7108
      3321.70       2714.5548
      3323.79       2746.3397
      3325.87       2835.3743
      3327.95       2916.5310
      3330.03       2789.4804
      3332.12       2710.0698
      3334.20       2701.7047
      3336.28       2768.8255
      3338.36       2717.4001
      3340.45       2691.6096
      3342.53       2695.6935
      3344.61       2729.7931
      3346.69       2761.7802
      3348.77       2835.6247
      3350.86       2935.6820
      3352.94       3003.0975
      3355.02       2888.2184
      3357.10       2800.8593
      3359.19       2787.1018
      3361.27       2809.4046
      3363.35       2795.6092
      3365.43       2746.2434
      3367.51       2725.2214
      3369.60       2724.3611
      3371.68       2746.1748
      3373.76       2798.9300
      3375.84       2826.5465
      3377.93       2838.7057
      3380.01       2843.0551
      3382.09       2795.4403
      3384.17       2751.1588
      3386.26       2732.6324
      3388.34       2734.3069
      3390.42       2725.9233
      3392.50       2670.4249
      3394.58       2674.5306
      3396.67       2723.4218
      3398.75       2712.5796
      3400.83       2662.2595
      3402.91       2663.9052
      3405.00       2715.1107
      3407.08       2798.0578
      3409.16       2779.2384
      3411.24       2752.9321
      3413.32       2714.3477
      3415.41       2668.9208
      3417.49       2742.8771
      3419.57       2775.0913
      3421.65       2764.0660
      3423.74       2717.8174
      3425.82       2704.5308
      3427.90       2683.8865
      3429.98       2629.2792
      3432.07       2563.9502
      3434.15       2591.6893
      3436.23       2600.4977
      3438.31       2571.1657
      3440.39       2528.1573
      3442.48       2518.1339
      3444.56       2496.6257
      3446.64       2450.3522
      3448.72       2400.5124
      3450.81       2366.8988
      3452.89       2537.7895
      3454.97       2603.3471
      3457.05       2600.2118
      3459.13       2566.1729
      3461.22       2513.9861
      3463.30       2415.6863
      3465.38       2338.3993
      3467.46       2322.7192
      3469.55       2400.3554
      3471.63       2444.2992
      3473.71       2412.3113
      3475.79       2332.9901
      3477.88       2330.1974
      3479.96       2333.8500
      3482.04       2339.6626
      3484.12       2360.6621
      3486.20       2430.6077
      3488.29       2409.8857
      3490.37       2411.4489
      3492.45       2444.3307
      3494.53       2507.5086
      3496.62       2488.4276
      3498.70       2449.1080
      3500.78       2428.2365
      3502.86       2447.7929
      3504.94       2460.6988
      3507.03       2375.4302
      3509.11       2318.6058
      3511.19       2332.9843
      3513.27       2428.8287
      3515.36       2443.8917
      3517.44       2443.2495
      3519.52       2456.1436
      3521.60       2521.9701
      3523.69       2591.9497
      3525.77       2581.7449
      3527.85       2522.3214
      3529.93       2462.0000
      3532.01       2425.3571
      3534.10       2389.2633
      3536.18       2371.1138
      3538.26       2381.4470
      3540.34       2394.0318
      3542.43       2389.0178
      3544.51       2377.4353
      3546.59       2368.0937
      3548.67       2420.4097
      3550.75       2410.9004
      3552.84       2408.0753
      3554.92       2418.5851
      3557.00       2391.4015
      3559.08       2329.9380
      3561.17       2293.1710
      3563.25       2294.7144
      3565.33       2341.1061
      3567.41       2414.9821
      3569.50       2405.5089
      3571.58       2371.9222
      3573.66       2382.2888
      3575.74       2425.9867
      3577.82       2394.3219
      3579.91       2319.9422
      3581.99       2237.5483
      3584.07       2228.7819
      3586.15       2284.3519
      3588.24       2317.7090
      3590.32       2312.8894
      3592.40       2355.3269
      3594.48       2374.3677
      3596.56       2343.3930
      3598.65       2289.5089
      3600.73       2278.4507
      3602.81       2230.1691
      3604.89       2199.0540
      3606.98       2188.4371
      3609.06       2185.9128
      3611.14       2159.3935
      3613.22       2139.1000
      3615.31       2140.5758
      3617.39       2179.8696
      3619.47       2259.0771
      3621.55       2260.6398
      3623.63       2231.1664
      3625.72       2191.9625
      3627.80       2133.7055
      3629.88       2129.2951
      3631.96       2166.3967
      3634.05       2214.3180
      3636.13       2183.4459
      3638.21       2199.1007
      3640.29       2196.5856
      3642.37       2169.9584
      3644.46       2131.8426
      3646.54       2133.3345
      3648.62       2109.4208
      3650.70       2091.5464
      3652.79       2120.1771
      3654.87       2145.2462
      3656.95       2164.6249
      3659.03       2148.2670
      3661.11       2091.1931
      3663.20       2123.7340
      3665.28       2200.9315
      3667.36       2243.4341
      3669.44       2212.1793
      3671.53       2163.3524
      3673.61       2050.3819
      3675.69       2031.1529
      3677.77       2104.9931
      3679.86       2163.5110
      3681.94       2139.2811
      3684.02       2107.5439
      3686.10       2076.2809
      3688.18       2034.2074
      3690.27       2112.0553
      3692.35       2131.1557
      3694.43       2107.2964
      3696.51       2064.6015
      3698.60       2066.0795
      3700.68       2059.9573
      3702.76       2074.7681
      3704.84       2124.6188
      3706.93       2145.8186
      3709.01       2139.4656
      3711.09       2129.2071
      3713.17       2122.9059
      3715.25       2093.3595
      3717.34       2096.7996
      3719.42       2086.7508
      3721.50       2061.5050
      3723.58       2027.2090
      3725.67       2010.0791
      3727.75       1987.5933
      3729.83       1983.5480
      3731.91       2029.3548
      3733.99       2051.5084
      3736.08       2039.8064
      3738.16       2024.4407
      3740.24       2029.6523
      3742.32       2040.5075
      3744.41       2019.5513
      3746.49       1989.6281
      3748.57       1965.5734
      3750.65       1968.8245
      3752.73       1952.2020
      3754.82       1941.0793
      3756.90       1949.6720
      3758.98       1989.2079
      3761.06       2020.2234
      3763.15       1990.2998
      3765.23       1923.2596
      3767.31       1879.1334
      3769.39       1952.8899
      3771.48       1977.8722
      3773.56       1975.6899
      3775.64       1984.4467
      3777.72       2006.1377
      3779.80       1998.3981
      3781.89       1988.8579
      3783.97       1992.1654
      3786.05       1977.1861
      3788.13       1984.1294
      3790.22       1980.1264
      3792.30       1950.8133
      3794.38       1888.5964
      3796.46       1890.0032
      3798.54       1900.1429
      3800.63       2273.5803
      3802.71       2209.1962
      3804.79       2021.8972
      3806.87       1881.4106
      3808.96       1889.7695
      3811.04       1967.5879
      3813.12       1998.2947
      3815.20       1961.4866
      3817.29       1907.7053
      3819.37       1916.1868
      3821.45       1930.0312
      3823.53       1904.9842
      3825.61       1852.7566
      3827.70       1843.9359
      3829.78       1897.0260
      3831.86       1955.2459
      3833.94       1974.8271
      3836.03       1903.0826
      3838.11       1830.5695
      3840.19       1801.8356
      3842.27       1824.9224
      3844.35       1872.2919
      3846.44       1917.3590
      3848.52       1936.5708
      3850.60       1938.0432
      3852.68       1934.1677
      3854.77       1940.9953
      3856.85       1949.6454
      3858.93       1969.1862
      3861.01       2011.0290
      3863.10       2007.0115
      3865.18       1970.0706
      3867.26       1967.9497
      3869.34       1989.5123
      3871.42       2007.6093
      3873.51       1927.5784
      3875.59       1816.9600
      3877.67       1709.5374
      3879.75       1647.4508
      3881.84       1620.1169
      3883.92       1613.9142
      3886.00       1610.7017
      3888.08       1616.4038
      3890.16       1655.3301
      3892.25       1703.0211
      3894.33       1807.8211
      3896.41       1956.5506
      3898.49       2048.4572
      3900.58       1990.5047
      3902.66       1909.4125
      3904.74       1874.2885
      3906.82       1887.8753
      3908.91       1901.5617
      3910.99       1904.7936
      3913.07       1906.2750
      3915.15       1902.4940
      3917.23       1928.6871
      3919.32       1933.7488
      3921.40       1951.3653
      3923.48       1978.2328
      3925.56       2003.6261
      3927.65       2008.8891
      3929.73       2008.6106
      3931.81       1980.7773
      3933.89       1912.3874
      3935.97       1858.3006
      3938.06       1834.2426
      3940.14       1827.2480
      3942.22       1798.6169
      3944.30       1763.9238
      3946.39       1710.8882
      3948.47       1699.6644
      3950.55       1731.0340
      3952.63       1759.7363
      3954.72       1717.8700
      3956.80       1632.8002
      3958.88       1530.6503
      3960.96       1445.5042
      3963.04       1415.0205
      3965.13       1405.7451
      3967.21       1392.6779
      3969.29       1358.2975
      3971.37       1329.6558
      3973.46       1317.2978
      3975.54       1369.0807
      3977.62       1479.0206
      3979.70       1597.7899
      3981.78       1652.9715
      3983.87       1669.5941
      3985.95       1697.2939
      3988.03       1727.0448
      3990.11       1768.6829
      3992.20       1788.1215
      3994.28       1802.7860
      3996.36       1814.2255
      3998.44       1861.3966
      4000.53       1908.0364
      4002.61       1937.9141
      4004.69       1982.8176
      4006.77       2043.7672
      4008.85       2070.0474
      4010.94       2079.3570
      4013.02       2098.3510
      4015.10       2111.6780
      4017.18       2125.0909
      4019.27       2120.9344
      4021.35       2093.5221
      4023.43       2041.8691
      4025.51       2032.2552
      4027.59       2077.4438
      4029.68       2167.1067
      4031.76       2233.7335
      4033.84       2237.6027
      4035.92       2194.4967
      4038.01       2156.1882
      4040.09       2157.9373
      4042.17       2133.9851
      4044.25       2096.7381
      4046.34       2069.6500
      4048.42       2075.1539
      4050.50       2069.2042
      4052.58       2072.7983
      4054.66       2042.2585
      4056.75       1982.7369
      4058.83       1948.1354
      4060.91       1960.5316
      4062.99       1958.5224
      4065.08       1943.9430
      4067.16       1890.7697
      4069.24       1813.8200
      4071.32       1748.0328
      4073.40       1709.6434
      4075.49       1703.1841
      4077.57       1682.7434
      4079.65       1647.3074
      4081.73       1593.4247
      4083.82       1546.9936
      4085.90       1493.6384
      4087.98       1450.1176
      4090.06       1420.8905
      4092.15       1379.4908
      4094.23       1294.4243
      4096.31       1213.4874
      4098.39       1164.1088
      4100.47       1155.4534
      4102.56       1178.9944
      4104.64       1194.1827
      4106.72       1208.4542
      4108.80       1239.9096
      4110.89       1304.2168
      4112.97       1360.5358
      4115.05       1408.8687
      4117.13       1456.2336
      4119.21       1501.0390
      4121.30       1550.0752
      4123.38       1608.1039
      4125.46       1669.8427
      4127.54       1700.7376
      4129.63       1741.8042
      4131.71       1772.3982
      4133.79       1798.5550
      4135.87       1821.7404
      4137.96       1853.7410
      4140.04       1839.9758
      4142.12       1804.5773
      4144.20       1797.7898
      4146.28       1854.8232
      4148.37       1922.5004
      4150.45       1958.0803
      4152.53       1961.5300
      4154.61       1929.1206
      4156.70       1893.7568
      4158.78       1895.3484
      4160.86       1932.2107
      4162.94       1957.1313
      4165.02       1978.7253
      4167.11       2007.9431
      4169.19       2039.4703
      4171.27       2048.7258
      4173.35       2054.2357
      4175.44       2052.1871
      4177.52       2046.3692
      4179.60       2063.2469
      4181.68       2074.5247
      4183.77       2082.0264
      4185.85       2070.3990
      4187.93       2053.1554
      4190.01       2034.1839
      4192.09       2045.3075
      4194.18       2048.9315
      4196.26       2052.5623
      4198.34       2056.1993
      4200.42       2067.4474
      4202.51       2059.7016
      4204.59       2036.9189
      4206.67       2021.8259
      4208.75       2025.4147
      4210.83       2021.5489
      4212.92       2008.4218
      4215.00       2026.8690
      4217.08       2043.6039
      4219.16       2034.0802
      4221.25       2007.8872
      4223.33       1994.8542
      4225.41       2016.8932
      4227.49       2031.6778
      4229.58       2037.1702
      4231.66       2022.0872
      4233.74       1997.8946
      4235.82       1990.4228
      4237.90       1999.4854
      4239.99       2008.5924
      4242.07       1993.7257
      4244.15       1950.0207
      4246.23       1923.1503
      4248.32       1930.1320
      4250.40       1949.6717
      4252.48       1910.4516
      4254.56       1875.4731
      4256.64       1863.3137
      4258.73       1871.8069
      4260.81       1866.5364
      4262.89       1862.9980
      4264.97       1852.6275
      4267.06       1832.1622
      4269.14       1805.2626
      4271.22       1801.8420
      4273.30       1816.7426
      4275.38       1835.1449
      4277.47       1840.1247
      4279.55       1813.1128
      4281.63       1783.2086
      4283.71       1770.0271
      4285.80       1784.6681
      4287.88       1773.1103
      4289.96       1747.0845
      4292.04       1727.7965
      4294.13       1713.4485
      4296.21       1674.3657
      4298.29       1636.1734
      4300.37       1609.1949
      4302.45       1587.0409
      4304.54       1550.8430
      4306.62       1512.6823
      4308.70       1479.5444
      4310.78       1451.1360
      4312.87       1433.8003
      4314.95       1414.0650
      4317.03       1398.4615
      4319.11       1372.8768
      4321.19       1315.8699
      4323.28       1246.2197
      4325.36       1193.3730
      4327.44       1154.4049
      4329.52       1115.6816
      4331.61       1064.4442
      4333.69       1012.7571
      4335.77       969.81345
      4337.85       950.32221
      4339.94       960.84706
      4342.02       974.17616
      4344.10       983.15329
      4346.18       1001.3940
      4348.26       1049.5159
      4350.35       1098.9375
      4352.43       1147.5125
      4354.51       1192.7289
      4356.59       1244.3041
      4358.68       1282.6601
      4360.76       1323.4170
      4362.84       1366.7280
      4364.92       1394.6576
      4367.00       1395.8965
      4369.09       1406.1743
      4371.17       1434.9129
      4373.25       1468.2903
      4375.33       1495.5411
      4377.42       1516.2998
      4379.50       1530.2831
      4381.58       1538.7177
      4383.66       1578.8699
      4385.75       1608.1771
      4387.83       1626.0043
      4389.91       1631.9608
      4391.99       1643.9843
      4394.07       1634.8804
      4396.16       1631.8276
      4398.24       1637.8082
      4400.32       1654.4433
      4402.40       1672.7893
      4404.49       1686.6701
      4406.57       1689.7395
      4408.65       1685.0369
      4410.73       1689.6596
      4412.81       1703.6849
      4414.90       1719.4099
      4416.98       1717.7890
      4419.06       1730.4555
      4421.14       1733.6096
      4423.23       1725.6094
      4425.31       1711.3288
      4427.39       1731.9082
      4429.47       1749.5101
      4431.56       1754.3188
      4433.64       1738.2016
      4435.72       1712.7445
      4437.80       1695.4494
      4439.88       1690.7425
      4441.97       1700.0830
      4444.05       1706.3305
      4446.13       1703.1624
      4448.21       1696.8729
      4450.30       1692.1654
      4452.38       1687.4721
      4454.46       1699.9277
      4456.54       1709.3244
      4458.62       1714.0321
      4460.71       1718.7523
      4462.79       1742.6410
      4464.87       1744.2255
      4466.95       1732.9969
      4469.04       1739.3744
      4471.12       1753.8344
      4473.20       1729.7517
      4475.28       1693.4790
      4477.37       1667.1544
      4479.45       1657.9520
      4481.53       1665.5898
      4483.61       1691.8619
      4485.69       1720.1296
      4487.78       1707.4899
      4489.86       1691.8243
      4491.94       1690.2561
      4494.02       1698.0488
      4496.11       1687.1265
      4498.19       1680.9147
      4500.27       1676.2679
      4502.35       1665.4889
      4504.43       1651.7337
      4506.52       1667.0123
      4508.60       1679.3357
      4510.68       1679.3307
      4512.76       1663.9315
      4514.85       1635.0643
      4516.93       1627.5507
      4519.01       1638.0755
      4521.09       1660.8627
      4523.18       1671.6059
      4525.26       1679.3220
      4527.34       1679.3241
      4529.42       1674.6931
      4531.50       1670.0751
      4533.59       1683.9792
      4535.67       1690.1992
      4537.75       1691.7617
      4539.83       1701.1439
      4541.92       1702.7180
      4544.00       1688.6685
      4546.08       1674.7360
      4548.16       1660.9202
      4550.24       1642.6741
      4552.33       1633.6308
      4554.41       1638.1613
      4556.49       1657.9046
      4558.57       1659.4443
      4560.66       1639.7058
      4562.74       1630.6827
      4564.82       1636.7154
      4566.90       1632.2141
      4568.98       1629.2265
      4571.07       1627.7422
      4573.15       1623.2660
      4575.23       1617.3149
      4577.31       1620.3138
      4579.40       1620.3329
      4581.48       1621.8447
      4583.56       1638.3801
      4585.64       1652.0390
      4587.73       1656.6311
      4589.81       1644.4918
      4591.89       1623.4461
      4593.97       1579.2251
      4596.05       1564.7699
      4598.14       1563.3530
      4600.22       1574.9388
      4602.30       1596.8739
      4604.38       1608.7093
      4606.47       1607.2554
      4608.55       1601.3733
      4610.63       1598.4539
      4612.71       1595.5401
      4614.79       1583.8563
      4616.88       1565.0342
      4618.96       1555.0073
      4621.04       1565.0961
      4623.12       1583.9802
      4625.21       1601.6160
      4627.29       1609.0431
      4629.37       1588.4615
      4631.45       1581.1979
      4633.54       1573.9666
      4635.62       1559.5717
      4637.70       1535.3780
      4639.78       1529.7672
      4641.86       1534.0371
      4643.95       1532.6619
      4646.03       1520.0462
      4648.11       1522.8873
      4650.19       1521.5236
      4652.28       1514.5709
      4654.36       1516.0070
      4656.44       1532.8955
      4658.52       1542.8522
      4660.60       1548.5894
      4662.69       1554.3468
      4664.77       1552.9596
      4666.85       1558.7358
      4668.93       1570.3099
      4671.02       1586.3452
      4673.10       1573.2976
      4675.18       1556.0520
      4677.26       1548.9487
      4679.35       1553.2831
      4681.43       1556.1948
      4683.51       1557.6780
      4685.59       1546.2922
      4687.67       1529.3459
      4689.76       1515.3749
      4691.84       1502.9151
      4693.92       1507.1249
      4696.00       1519.7204
      4698.09       1528.1946
      4700.17       1510.0586
      4702.25       1486.6512
      4704.33       1470.3636
      4706.42       1474.4845
      4708.50       1492.2996
      4710.58       1496.4844
      4712.66       1489.6632
      4714.74       1461.1828
      4716.83       1425.3484
      4718.91       1421.4700
      4720.99       1439.9729
      4723.07       1456.0338
      4725.16       1454.7510
      4727.24       1445.4587
      4729.32       1437.5508
      4731.40       1434.9640
      4733.48       1437.6693
      4735.57       1416.6964
      4737.65       1408.9479
      4739.73       1412.9055
      4741.81       1422.1054
      4743.90       1410.4258
      4745.98       1406.5954
      4748.06       1402.7757
      4750.14       1395.1065
      4752.23       1364.6671
      4754.31       1350.9715
      4756.39       1357.2693
      4758.47       1369.8902
      4760.55       1362.4032
      4762.64       1349.9757
      4764.72       1348.7959
      4766.80       1352.5914
      4768.88       1353.9019
      4770.97       1332.9325
      4773.05       1315.9194
      4775.13       1303.9176
      4777.21       1299.1872
      4779.29       1289.7135
      4781.38       1287.4035
      4783.46       1285.0996
      4785.54       1273.3811
      4787.62       1262.9344
      4789.71       1260.6746
      4791.79       1264.2277
      4793.87       1253.8574
      4795.95       1255.0786
      4798.03       1267.9262
      4800.12       1273.8458
      4802.20       1258.7518
      4804.28       1239.2635
      4806.36       1214.4717
      4808.45       1193.4693
      4810.53       1180.4155
      4812.61       1185.9305
      4814.69       1178.3745
      4816.78       1161.2025
      4818.86       1139.0229
      4820.94       1125.5301
      4823.02       1112.1979
      4825.10       1097.0012
      4827.19       1081.0173
      4829.27       1069.1970
      4831.35       1053.6190
      4833.43       1026.8550
      4835.52       998.93056
      4837.60       971.76488
      4839.68       958.48977
      4841.76       939.32059
      4843.84       915.46182
      4845.93       885.65987
      4848.01       852.10615
      4850.09       812.30816
      4852.17       781.53403
      4854.26       755.39736
      4856.34       728.79091
      4858.42       705.71668
      4860.50       699.93625
      4862.59       705.15780
      4864.67       713.04068
      4866.75       721.01242
      4868.83       741.94390
      4870.91       773.39231
      4873.00       804.68982
      4875.08       841.11875
      4877.16       865.53904
      4879.24       889.84739
      4881.33       911.47580
      4883.41       926.77575
      4885.49       936.27726
      4887.57       951.99419
      4889.65       964.41540
      4891.74       974.30361
      4893.82       981.57844
      4895.90       999.89744
      4897.98       1027.0369
      4900.07       1045.2414
      4902.15       1053.0474
      4904.23       1057.9836
      4906.31       1064.9036
      4908.40       1062.0422
      4910.48       1074.9132
      4912.56       1085.9385
      4914.64       1091.0306
      4916.72       1096.1470
      4918.81       1101.2889
      4920.89       1108.4942
      4922.97       1122.9646
      4925.05       1143.9280
      4927.14       1147.1807
      4929.22       1148.3250
      4931.30       1149.4706
      4933.38       1152.7393
      4935.46       1158.1498
      4937.55       1172.1909
      4939.63       1174.4427
      4941.71       1163.7665
      4943.79       1143.6682
      4945.88       1133.2726
      4947.96       1131.2760
      4950.04       1131.3665
      4952.12       1133.5423
      4954.21       1121.1733
      4956.29       1121.2640
      4958.37       1130.6879
      4960.45       1147.5671
      4962.53       1142.3882
      4964.62       1157.3083
      4966.70       1169.1895
      4968.78       1174.6838
      4970.86       1165.0833
      4972.95       1167.3289
      4975.03       1172.8150
      4977.11       1175.0764
      4979.19       1164.4019
      4981.27       1151.7012
      4983.36       1149.6792
      4985.44       1155.0851
      4987.52       1173.4138
      4989.60       1177.8463
      4991.69       1182.2962
      4993.77       1172.6377
      4995.85       1161.9886
      4997.93       1144.0367
      5000.02       1140.9796
      5002.10       1145.2920
      5004.18       1145.3941
      5006.26       1129.7791
      5008.34       1123.6534
      5010.43       1131.0230
      5012.51       1142.6431
      5014.59       1144.8525
      5016.67       1144.9568
      5018.76       1150.3461
      5020.84       1155.7619
      5022.92       1155.8673
      5025.00       1138.0153
      5027.08       1129.7655
      5029.17       1124.6793
      5031.25       1118.5851
      5033.33       1115.6032
      5035.41       1117.7643
      5037.50       1120.9632
      5039.58       1124.1706
      5041.66       1130.5075
      5043.74       1127.4957
      5045.83       1116.2365
      5047.91       1099.0007
      5049.99       1090.0328
      5052.07       1075.1809
      5054.15       1069.3590
      5056.24       1077.3731
      5058.32       1101.5603
      5060.40       1110.8385
      5062.48       1105.8426
      5064.57       1095.8125
      5066.65       1104.0254
      5068.73       1103.1186
      5070.81       1096.1389
      5072.89       1093.2239
      5074.98       1106.5029
      5077.06       1114.7982
      5079.14       1107.7460
      5081.22       1099.7253
      5083.31       1095.7922
      5085.39       1094.8952
      5087.47       1087.9694
      5089.55       1094.1107
      5091.64       1110.4679
      5093.72       1103.4460
      5095.80       1092.4359
      5097.88       1094.5642
      5099.96       1101.7582
      5102.05       1100.8591
      5104.13       1108.0961
      5106.21       1118.4668
      5108.29       1122.7135
      5110.38       1111.5139
      5112.46       1094.3623
      5114.54       1086.4443
      5116.62       1085.5601
      5118.70       1079.6934
      5120.79       1068.9255
      5122.87       1066.0904
      5124.95       1067.1889
      5127.03       1060.4454
      5129.12       1048.9039
      5131.20       1045.1608
      5133.28       1048.1673
      5135.36       1055.0631
      5137.45       1059.0741
      5139.53       1069.9770
      5141.61       1081.9881
      5143.69       1088.1048
      5145.77       1074.2845
      5147.86       1056.7393
      5149.94       1050.0665
      5152.02       1054.0599
      5154.10       1064.9134
      5156.19       1077.8628
      5158.27       1081.9642
      5160.35       1071.1793
      5162.43       1055.6308
      5164.51       1051.8689
      5166.60       1057.8194
      5168.68       1058.9158
      5170.76       1050.2963
      5172.84       1050.4173
      5174.93       1049.5723
      5177.01       1044.8718
      5179.09       1045.9567
      5181.17       1059.6553
      5183.25       1071.5575
      5185.34       1068.7266
      5187.42       1052.2478
      5189.50       1032.2127
      5191.58       1020.9887
      5193.67       1022.9930
      5195.75       1025.9459
      5197.83       1030.8051
      5199.91       1030.9284
      5202.00       1022.5406
      5204.08       1014.2224
      5206.16       1019.0266
      5208.24       1024.7979
      5210.32       1022.0945
      5212.41       1018.4599
      5214.49       1021.4032
      5216.57       1017.7717
      5218.65       1000.2391
      5220.74       988.45604
      5222.82       990.40093
      5224.90       1008.0096
      5226.98       1013.7212
      5229.06       1003.6274
      5231.15       997.30233
      5233.23       1003.8781
      5235.31       1016.0983
      5237.39       1011.5565
      5239.48       1008.8925
      5241.56       1010.8807
      5243.64       1004.5109
      5245.72       1000.0229
      5247.81       1000.1507
      5249.89       1006.7476
      5251.97       1003.1734
      5254.05       997.77372
      5256.13       992.40261
      5258.22       992.52992
      5260.30       999.99912
      5262.38       996.45147
      5264.46       991.08874
      5266.55       993.95994
      5268.63       998.67848
      5270.71       993.30469
      5272.79       999.86004
      5274.88       1007.3874
      5276.96       1002.8904
      5279.04       989.26082
      5281.12       976.71639
      5283.20       973.25340
      5285.29       976.07589
      5287.37       991.61171
      5289.45       985.37036
      5291.53       977.36731
      5293.62       978.39915
      5295.70       983.95316
      5297.78       979.56382
      5299.86       976.09399
      5301.94       978.02554
      5304.03       978.15860
      5306.11       963.09350
      5308.19       954.39399
      5310.27       963.35631
      5312.36       971.50820
      5314.44       977.92573
      5316.52       981.67027
      5318.60       983.61618
      5320.69       977.42941
      5322.77       957.95613
      5324.85       942.33680
      5326.93       938.13719
      5329.01       953.07501
      5331.10       955.84547
      5333.18       959.50772
      5335.26       962.29745
      5337.34       958.01096
      5339.43       942.39215
      5341.51       927.88258
      5343.59       922.89968
      5345.67       926.43739
      5347.75       932.56178
      5349.84       941.32520
      5351.92       950.17064
      5354.00       953.81407
      5356.08       953.07271
      5358.17       935.81141
      5360.25       935.94657
      5362.33       939.53681
      5364.41       934.49397
      5366.50       923.50517
      5368.58       927.04853
      5370.66       940.94745
      5372.74       948.04495
      5374.82       951.68229
      5376.91       955.33493
      5378.99       961.65555
      5381.07       962.68292
      5383.15       958.40105
      5385.24       941.91380
      5387.32       924.85874
      5389.40       918.20510
      5391.48       921.73114
      5393.56       926.12377
      5395.65       927.96998
      5397.73       928.96357
      5399.81       933.39081
      5401.89       937.84015
      5403.98       930.23775
      5406.06       921.84811
      5408.14       925.39032
      5410.22       927.23596
      5412.30       918.87439
      5414.39       909.74970
      5416.47       903.20840
      5418.55       894.24057
      5420.63       893.55380
      5422.72       896.98899
      5424.80       900.43700
      5426.88       898.91823
      5428.96       895.75020
      5431.05       895.88849
      5433.13       896.85240
      5435.21       903.62457
      5437.29       907.93595
      5439.37       900.58107
      5441.46       888.36295
      5443.54       888.50088
      5445.62       896.03669
      5447.70       895.35181
      5449.79       892.19893
      5451.87       889.87687
      5453.95       879.42386
      5456.03       869.89489
      5458.11       864.44140
      5460.20       862.98659
      5462.28       866.30922
      5464.36       875.26970
      5466.44       878.64017
      5468.53       873.13222
      5470.61       857.33263
      5472.69       848.04498
      5474.77       850.52759
      5476.85       863.29300
      5478.94       869.81709
      5481.02       868.35653
      5483.10       860.53369
      5485.18       849.64658
      5487.27       845.10090
      5489.35       848.35771
      5491.43       854.77058
      5493.51       862.81993
      5495.60       856.62548
      5497.68       850.47570
      5499.76       847.48754
      5501.84       841.40400
      5503.92       835.36422
      5506.01       832.42908
      5508.09       833.33330
      5510.17       834.23888
      5512.25       832.84160
      5514.34       832.21286
      5516.42       836.19252
      5518.50       839.41852
      5520.58       841.10642
      5522.67       842.79729
      5524.75       838.29331
      5526.83       830.74630
      5528.91       827.06816
      5530.99       828.73255
      5533.08       833.46505
      5535.16       832.07114
      5537.24       826.86367
      5539.32       823.20331
      5541.41       821.07093
      5543.49       821.21064
      5545.57       817.57656
      5547.65       815.45889
      5549.73       811.10371
      5551.82       806.77154
      5553.90       802.46255
      5555.98       804.82061
      5558.06       804.95895
      5560.15       803.61543
      5562.23       800.06105
      5564.31       796.52203
      5566.39       798.86435
      5568.48       813.85717
      5570.56       823.80303
      5572.64       823.94642
      5574.72       815.78239
      5576.80       811.42791
      5578.89       809.33012
      5580.97       813.95728
      5583.05       812.60107
      5585.13       800.11724
      5587.22       791.46179
      5589.30       791.60061
      5591.38       795.39497
      5593.46       795.53475
      5595.54       786.20502
      5597.63       777.70124
      5599.71       774.97857
      5601.79       775.83016
      5603.87       779.55008
      5605.96       786.17902
      5608.04       786.31887
      5610.12       780.68570
      5612.20       781.54468
      5614.29       783.12618
      5616.37       785.43379
      5618.45       787.74893
      5620.53       792.25683
      5622.61       785.85799
      5624.70       776.64488
      5626.78       768.24735
      5628.86       763.44813
      5630.94       764.29065
      5633.03       765.83845
      5635.11       765.27251
      5637.19       764.00375
      5639.27       772.63517
      5641.35       779.20898
      5643.44       777.20110
      5645.52       770.92631
      5647.60       760.48832
      5649.68       760.62847
      5651.77       765.68868
      5653.85       772.91649
      5655.93       773.77131
      5658.01       769.64933
      5660.10       769.79137
      5662.18       771.35392
      5664.26       771.49740
      5666.34       770.22050
      5668.42       762.59829
      5670.51       750.89106
      5672.59       742.77646
      5674.67       748.40953
      5676.75       754.08540
      5678.84       755.61772
      5680.92       751.59457
      5683.00       745.53080
      5685.08       742.92886
      5687.16       744.43933
      5689.25       749.39548
      5691.33       749.53762
      5693.41       745.54799
      5695.49       737.49278
      5697.58       732.21775
      5699.66       734.38393
      5701.74       737.91389
      5703.82       740.77894
      5705.90       743.65528
      5707.99       746.54287
      5710.07       741.20429
      5712.15       735.22649
      5714.23       734.01482
      5716.32       734.83233
      5718.40       733.62096
      5720.48       733.76282
      5722.56       736.61347
      5724.65       735.39974
      5726.73       729.46994
      5728.81       724.92296
      5730.89       724.39632
      5732.97       729.89533
      5735.06       738.15133
      5737.14       737.61552
      5739.22       733.01808
      5741.30       729.12087
      5743.39       727.92194
      5745.47       721.38979
      5747.55       714.91595
      5749.63       709.15399
      5751.71       706.03494
      5753.80       704.22501
      5755.88       705.01363
      5757.96       709.71352
      5760.04       715.10366
      5762.13       713.92934
      5764.21       711.44501
      5766.29       708.96940
      5768.37       712.38395
      5770.46       713.83908
      5772.54       715.95753
      5774.62       718.08166
      5776.70       718.88706
      5778.78       719.69344
      5780.87       718.51340
      5782.95       717.33474
      5785.03       720.79111
      5787.11       723.59713
      5789.20       722.41081
      5791.28       715.93224
      5793.36       710.82012
      5795.44       709.65514
      5797.52       707.18864
      5799.61       698.91388
      5801.69       692.64646
      5803.77       695.34438
      5805.85       703.86339
      5807.94       710.52130
      5810.02       715.26268
      5812.10       714.75019
      5814.18       707.03896
      5816.27       695.55619
      5818.35       688.05233
      5820.43       687.56018
      5822.51       691.51239
      5824.59       697.41204
      5826.68       705.30799
      5828.76       711.32590
      5830.84       706.24977
      5832.92       697.98831
      5835.01       691.09553
      5837.09       689.33168
      5839.17       694.57370
      5841.25       689.61807
      5843.33       683.43806
      5845.42       688.00229
      5847.50       693.23487
      5849.58       690.19363
      5851.66       685.90181
      5853.75       682.89363
      5855.83       679.27258
      5857.91       675.67099
      5859.99       675.19081
      5862.08       672.84943
      5864.16       668.66648
      5866.24       666.34801
      5868.32       665.87510
      5870.40       667.85864
      5872.49       670.46569
      5874.57       668.14162
      5876.65       660.32999
      5878.73       653.81253
      5880.82       650.94659
      5882.90       652.28592
      5884.98       659.67612
      5887.06       673.32300
      5889.15       687.25222
      5891.23       692.48289
      5893.31       686.28127
      5895.39       675.14214
      5897.47       663.57287
      5899.56       658.84312
      5901.64       660.20007
      5903.72       664.00167
      5905.80       665.98238
      5907.89       660.62717
      5909.97       655.91915
      5912.05       653.64910
      5914.13       653.18885
      5916.21       652.72918
      5918.30       650.46997
      5920.38       645.83519
      5922.46       646.57098
      5924.54       649.69735
      5926.63       645.66260
      5928.71       641.65371
      5930.79       631.82293
      5932.87       640.16313
      5934.95       640.89348
      5937.04       633.98831
      5939.12       627.15771
      5941.20       624.98876
      5943.28       625.70239
      5945.37       631.63090
      5947.45       639.38013
      5949.53       647.22476
      5951.61       647.96496
      5953.70       638.62736
      5955.78       633.49563
      5957.86       634.22000
      5959.94       640.23103
      5962.02       638.01834
      5964.11       634.05962
      5966.19       628.96529
      5968.27       622.76403
      5970.35       616.62402
      5972.44       617.33070
      5974.52       620.31872
      5976.60       623.32205
      5978.68       627.49413
      5980.76       629.37157
      5982.85       627.77609
      5984.93       624.45698
      5987.01       620.01236
      5989.09       618.44116
      5991.18       616.87403
      5993.26       613.61313
      5995.34       612.62269
      5997.42       616.15716
      5999.51       616.29653
      6001.59       613.60437
      6003.67       610.92406
      6005.75       611.62609
      6007.83       615.72193
      6009.92       621.56125
      6012.00       628.61222
      6014.08       627.02103
      6016.16       620.84232
      6018.25       612.46432
      6020.33       605.31333
      6022.41       603.22620
      6024.49       603.92058
      6026.57       605.73068
      6028.66       608.10635
      6030.74       613.87436
      6032.82       614.01609
      6034.90       614.15760
      6036.99       615.43226
      6039.07       616.70978
      6041.15       610.63443
      6043.23       601.84111
      6045.32       594.26856
      6047.40       593.85946
      6049.48       601.15247
      6051.56       606.29750
      6053.64       606.99747
      6055.73       600.46587
      6057.81       595.64789
      6059.89       590.32493
      6061.97       584.51086
      6064.06       578.22176
      6066.14       579.95746
      6068.22       583.84582
      6070.30       588.84343
      6072.38       592.24578
      6074.47       590.20715
      6076.55       593.07084
      6078.63       597.04788
      6080.71       598.84102
      6082.80       595.13347
      6084.88       593.63121
      6086.96       591.04380
      6089.04       585.76393
      6091.12       581.06608
      6093.21       577.46918
      6095.29       576.01274
      6097.37       576.14945
      6099.45       574.69669
      6101.54       575.36327
      6103.62       578.15728
      6105.70       582.57199
      6107.78       584.86215
      6109.87       587.16134
      6111.95       591.64537
      6114.03       593.42442
      6116.11       585.42296
      6118.19       579.12746
      6120.28       577.13648
      6122.36       576.21325
      6124.44       572.64792
      6126.52       572.78621
      6128.61       572.92425
      6130.69       573.06290
      6132.77       572.67381
      6134.85       571.75807
      6136.94       573.47940
      6139.02       575.73522
      6141.10       576.40612
      6143.18       569.68401
      6145.26       567.20421
      6147.35       567.86548
      6149.43       571.15154
      6151.51       571.29049
      6153.59       568.28084
      6155.68       561.13754
      6157.76       553.57393
      6159.84       553.19968
      6161.92       555.88915
      6164.00       554.49139
      6166.09       551.57094
      6168.17       552.72378
      6170.25       559.00390
      6172.33       562.24009
      6174.42       561.86089
      6176.50       557.87368
      6178.58       559.04050
      6180.66       560.20979
      6182.75       558.80228
      6184.83       554.32632
      6186.91       547.36033
      6188.99       544.47885
      6191.07       541.61261
      6193.16       537.77020
      6195.24       534.93948
      6197.32       538.03781
      6199.40       543.15133
      6201.49       547.80913
      6203.57       549.46179
      6205.65       547.57840
      6207.73       547.21112
      6209.81       548.35693
      6211.90       546.98090
      6213.98       547.11829
      6216.06       543.73840
      6218.14       537.89717
      6220.23       530.16159
      6222.31       531.76263
      6224.39       531.89627
      6226.47       530.07386
      6228.56       526.31520
      6230.64       527.41894
      6232.72       527.55241
      6234.80       526.71461
      6236.88       524.91042
      6238.97       523.11305
      6241.05       523.72775
      6243.13       523.86051
      6245.21       522.54780
      6247.30       517.41192
      6249.38       517.54379
      6251.46       519.10791
      6253.54       519.24046
      6255.62       514.13748
      6257.71       511.90610
      6259.79       512.03673
      6261.87       515.00589
      6263.95       518.46994
      6266.04       515.74477
      6268.12       511.61882
      6270.20       509.86813
      6272.28       513.77079
      6274.37       512.01298
      6276.45       507.44953
      6278.53       503.39049
      6280.61       502.59344
      6282.69       504.57868
      6284.78       507.03851
      6286.86       505.30490
      6288.94       499.41987
      6291.02       494.96890
      6293.11       494.64144
      6295.19       496.59603
      6297.27       499.93794
      6299.35       504.23032
      6301.43       503.43314
      6303.52       504.02816
      6305.60       506.95319
      6307.68       512.24905
      6309.76       512.85475
      6311.85       508.75423
      6313.93       500.98140
      6316.01       491.96613
      6318.09       489.38291
      6320.17       492.22381
      6322.26       497.36646
      6324.34       503.95324
      6326.42       503.62153
      6328.50       498.67635
      6330.59       491.96364
      6332.67       486.23629
      6334.75       486.81250
      6336.83       488.73824
      6338.92       490.67162
      6341.00       492.15916
      6343.08       494.56140
      6345.16       495.60449
      6347.24       495.27934
      6349.33       493.58876
      6351.41       490.99871
      6353.49       491.58202
      6355.57       493.07303
      6357.66       494.11363
      6359.74       491.97394
      6361.82       491.65201
      6363.90       491.78318
      6365.98       494.18479
      6368.07       497.97231
      6370.15       498.56478
      6372.23       494.58112
      6374.31       489.72658
      6376.40       488.95646
      6378.48       488.63731
      6380.56       487.86865
      6382.64       488.89956
      6384.73       491.74084
      6386.81       485.57115
      6388.89       477.71626
      6390.97       473.02808
      6393.05       473.59156
      6395.14       479.86734
      6397.22       483.54659
      6399.30       483.67701
      6401.38       480.69883
      6403.47       479.06056
      6405.55       483.17906
      6407.63       486.43627
      6409.71       487.01656
      6411.79       482.68256
      6413.88       480.59505
      6415.96       482.05617
      6418.04       484.41286
      6420.12       485.88529
      6422.21       478.02697
      6424.29       474.20994
      6426.37       471.72528
      6428.45       468.82193
      6430.54       463.36858
      6432.62       461.36545
      6434.70       460.64273
      6436.78       460.34472
      6438.86       461.74493
      6440.95       462.72328
      6443.03       462.42428
      6445.11       460.42621
      6447.19       459.28172
      6449.28       458.56285
      6451.36       457.42359
      6453.44       456.28682
      6455.52       458.51961
      6457.60       460.33903
      6459.69       460.04236
      6461.77       458.05537
      6463.85       453.56346
      6465.93       447.87627
      6468.02       444.30239
      6470.10       441.97631
      6472.18       440.06745
      6474.26       438.16727
      6476.35       437.48269
      6478.43       436.39656
      6480.51       433.31348
      6482.59       428.27536
      6484.67       425.64189
      6486.76       424.58583
      6488.84       424.70421
      6490.92       424.43172
      6493.00       422.21107
      6495.09       421.16352
      6497.17       422.05830
      6499.25       423.34456
      6501.33       423.07345
      6503.42       423.19228
      6505.50       423.31132
      6507.58       419.93474
      6509.66       415.05325
      6511.74       409.09660
      6513.83       402.48388
      6515.91       395.97780
      6517.99       392.81957
      6520.07       392.20747
      6522.16       391.95713
      6524.24       389.54813
      6526.32       385.02051
      6528.40       379.14633
      6530.48       373.36185
      6532.57       368.00434
      6534.65       364.06273
      6536.73       362.82684
      6538.81       363.26428
      6540.90       363.70232
      6542.98       358.48406
      6545.06       350.74668
      6547.14       341.28496
      6549.22       330.85749
      6551.31       320.15840
      6553.39       310.94877
      6555.47       301.17070
      6557.55       291.16364
      6559.64       282.26781
      6561.72       281.05120
      6563.80       283.99446
      6565.88       289.89072
      6567.97       296.72823
      6570.05       303.72711
      6572.13       310.60505
      6574.21       317.63857
      6576.29       323.93530
      6578.38       325.82419
      6580.46       329.84383
      6582.54       336.07293
      6584.62       343.36724
      6586.71       347.60356
      6588.79       352.54096
      6590.87       356.56224
      6592.95       359.63393
      6595.03       363.06688
      6597.12       368.90307
      6599.20       373.11128
      6601.28       374.94206
      6603.36       379.21932
      6605.45       386.73752
      6607.53       392.23150
      6609.61       395.24745
      6611.69       396.09123
      6613.78       392.21302
      6615.86       390.16524
      6617.94       391.35878
      6620.02       397.28477
      6622.10       398.86769
      6624.19       399.71960
      6626.27       400.20524
      6628.35       401.06025
      6630.43       400.80839
      6632.52       403.51919
      6634.60       406.99741
      6636.68       409.37287
      6638.76       412.90136
      6640.84       414.16572
      6642.93       410.86745
      6645.01       404.60343
      6647.09       404.72238
      6649.17       410.85184
      6651.26       415.92333
      6653.34       418.35151
      6655.42       419.24674
      6657.50       417.82830
      6659.58       415.64848
      6661.67       412.71918
      6663.75       410.18842
      6665.83       409.93215
      6667.91       413.46698
      6670.00       418.18589
      6672.08       421.40360
      6674.16       421.14064
      6676.24       422.82074
      6678.33       425.68228
      6680.41       428.16857
      6682.49       426.72094
      6684.57       424.49572
      6686.65       423.06106
      6688.74       422.40834
      6690.82       423.70342
      6692.90       421.10646
      6694.98       416.60245
      6697.07       411.76715
      6699.15       409.24318
      6701.23       407.86031
      6703.31       409.48839
      6705.40       413.02080
      6707.48       416.58373
      6709.56       417.09280
      6711.64       416.45009
      6713.72       416.19184
      6715.81       416.70095
      6717.89       418.36460
      6719.97       419.64880
      6722.05       418.23155
      6724.14       413.37835
      6726.22       410.84594
      6728.30       410.96978
      6730.38       412.23171
      6732.46       411.97672
      6734.55       411.34287
      6736.63       411.08864
      6738.71       411.21331
      6740.79       412.47604
      6742.88       414.50546
      6744.96       413.86843
      6747.04       413.23206
      6749.12       412.97714
      6751.21       411.96288
      6753.29       409.44016
      6755.37       409.18776
      6757.45       411.20162
      6759.53       414.36883
      6761.62       411.83172
      6763.70       406.67934
      6765.78       400.85290
      6767.86       397.29894
      6769.95       399.99114
      6772.03       404.56046
      6774.11       408.80489
      6776.19       409.68417
      6778.27       408.30270
      6780.36       407.67648
      6782.44       407.80143
      6784.52       408.30286
      6786.60       410.69167
      6788.69       411.95452
      6790.77       412.84121
      6792.85       413.34877
      6794.93       411.95558
      6797.02       408.68062
      6799.10       406.17968
      6801.18       405.18399
      6803.26       406.43048
      6805.34       406.55621
      6807.43       405.93337
      6809.51       404.56564
      6811.59       401.35039
      6813.67       400.36695
      6815.76       403.45285
      6817.84       407.31210
      6819.92       408.94239
      6822.00       408.31637
      6824.08       408.06725
      6826.17       408.19423
      6828.25       409.07420
      6830.33       409.57851
      6832.41       408.57565
      6834.50       405.70261
      6836.58       401.73822
      6838.66       395.98481
      6840.74       393.20051
      6842.83       391.51627
      6844.91       390.91775
      6846.99       391.04021
      6849.07       396.23917
      6851.15       400.76817
      6853.24       402.00284
      6855.32       396.61151
      6857.40       388.42013
      6859.48       379.34804
      6861.57       369.12583
      6863.65       355.88585
      6865.73       334.69345
      6867.81       316.79905
      6869.89       306.56358
      6871.98       307.22566
      6874.06       318.26884
      6876.14       331.23127
      6878.22       343.77008
      6880.31       353.51286
      6882.39       355.58412
      6884.47       354.38842
      6886.55       351.89804
      6888.63       349.42527
      6890.72       349.85791
      6892.80       353.20718
      6894.88       356.25983
      6896.96       357.68823
      6899.05       355.82987
      6901.13       353.00475
      6903.21       350.20176
      6905.29       347.42143
      6907.38       346.89221
      6909.46       350.53614
      6911.54       355.19856
      6913.62       360.25455
      6915.70       365.71939
      6917.79       370.92528
      6919.87       375.85883
      6921.95       379.80745
      6924.03       382.73881
      6926.12       379.70054
      6928.20       375.64725
      6930.28       374.04080
      6932.36       375.88780
      6934.44       374.97080
      6936.53       370.62661
      6938.61       363.97865
      6940.69       357.12074
      6942.77       354.93983
      6944.86       356.36442
      6946.94       359.11523
      6949.02       361.88738
      6951.10       363.00543
      6953.19       362.45425
      6955.27       361.57063
      6957.35       362.02042
      6959.43       365.48793
      6961.51       372.06037
      6963.60       375.97039
      6965.68       376.43841
      6967.76       373.10783
      6969.84       373.22836
      6971.93       375.41805
      6974.01       376.92578
      6976.09       374.96995
      6978.17       368.92425
      6980.25       362.30804
      6982.34       355.15587
      6984.42       348.78671
      6986.50       346.65799
      6988.58       346.45142
      6990.67       346.24509
      6992.75       346.03890
      6994.83       346.47051
      6996.91       347.22248
      6999.00       350.54944
      7001.08       355.86965
      7003.16       358.61844
      7005.24       360.05959
      7007.32       362.17318
      7009.41       363.62875
      7011.49       360.74482
      7013.57       358.21367
      7015.65       357.34229
      7017.74       357.78867
      7019.82       358.89646
      7021.90       362.00225
      7023.98       365.47192
      7026.06       367.95634
      7028.15       367.40002
      7030.23       363.48087
      7032.31       359.27281
      7034.39       355.11376
      7036.48       350.03407
      7038.56       344.70959
      7040.64       342.60703
      7042.72       343.66845
      7044.81       347.28223
      7046.89       348.35824
      7048.97       347.51180
      7051.05       347.62646
      7053.13       349.02487
      7055.22       351.39867
      7057.30       354.11453
      7059.38       355.86670
      7061.46       355.32961
      7063.55       351.54022
      7065.63       351.00980
      7067.71       352.74687
      7069.79       352.86408
      7071.88       348.45879
      7073.96       344.42582
      7076.04       342.95743
      7078.12       342.75566
      7080.20       341.29449
      7082.29       339.21390
      7084.37       340.26603
      7086.45       341.95040
      7088.53       343.32704
      7090.62       341.23458
      7092.70       341.66301
      7094.78       343.03863
      7096.86       344.73707
      7098.94       344.21752
      7101.03       344.33283
      7103.11       344.13096
      7105.19       343.29641
      7107.27       340.57640
      7109.36       339.43796
      7111.44       340.17761
      7113.52       341.86267
      7115.60       344.18918
      7117.68       347.17081
      7119.77       347.28758
      7121.85       344.85402
      7123.93       338.67358
      7126.01       334.44701
      7128.10       333.94407
      7130.18       335.59842
      7132.26       338.19421
      7134.34       338.30842
      7136.43       337.79963
      7138.51       336.67126
      7140.59       334.31257
      7142.67       328.92692
      7144.75       325.72126
      7146.84       325.83159
      7148.92       328.35229
      7151.00       331.80823
      7153.08       335.60936
      7155.17       337.89476
      7157.25       337.07669
      7159.33       332.25838
      7161.41       324.20769
      7163.49       316.35217
      7165.58       310.11192
      7167.66       306.80764
      7169.74       304.93947
      7171.82       300.58085
      7173.91       295.46724
      7175.99       291.78127
      7178.07       288.40670
      7180.15       284.80869
      7182.23       282.29391
      7184.32       281.87043
      7186.40       283.26830
      7188.48       284.67295
      7190.56       284.50811
      7192.65       282.77649
      7194.73       281.57366
      7196.81       280.11775
      7198.89       280.73018
      7200.98       283.42498
      7203.06       287.99627
      7205.14       290.22560
      7207.22       294.09314
      7209.30       300.21601
      7211.39       307.59779
      7213.47       310.83681
      7215.55       312.66681
      7217.63       314.50759
      7219.72       316.94254
      7221.80       314.43426
      7223.88       310.51292
      7225.96       306.64022
      7228.04       303.09506
      7230.13       297.39169
      7232.21       293.41262
      7234.29       291.62751
      7236.37       292.26624
      7238.46       295.61667
      7240.54       299.83271
      7242.62       303.26972
      7244.70       305.33708
      7246.79       304.03950
      7248.87       299.41958
      7250.95       295.41376
      7253.03       293.07690
      7255.11       294.26072
      7257.20       295.44914
      7259.28       292.84214
      7261.36       287.33246
      7263.44       279.59893
      7265.53       277.89883
      7267.61       281.60319
      7269.69       287.46769
      7271.77       292.64431
      7273.85       294.36854
      7275.94       295.28585
      7278.02       295.93357
      7280.10       297.12954
      7282.18       298.88038
      7284.27       296.78985
      7286.35       290.13542
      7288.43       280.77127
      7290.51       275.23555
      7292.60       276.85760
      7294.68       282.36355
      7296.76       289.57476
      7298.84       293.43546
      7300.92       291.65201
      7303.01       288.54759
      7305.09       285.47600
      7307.17       282.69749
      7309.25       283.05760
      7311.34       284.72615
      7313.42       285.61428
      7315.50       283.35604
      7317.58       283.97848
      7319.67       287.50025
      7321.75       293.48851
      7323.83       300.70750
      7325.91       306.40605
      7327.99       305.66837
      7330.08       301.58088
      7332.16       297.27399
      7334.24       300.96104
      7336.32       306.66460
      7338.41       309.32660
      7340.49       306.88175
      7342.57       301.66469
      7344.65       299.55610
      7346.73       298.28548
      7348.82       297.56784
      7350.90       296.85174
      7352.98       294.23453
      7355.06       290.56808
      7357.15       287.21161
      7359.23       287.84344
      7361.31       291.68247
      7363.39       292.05498
      7365.48       290.81655
      7367.56       290.38477
      7369.64       293.98715
      7371.72       295.72156
      7373.80       295.82673
      7375.89       294.57259
      7377.97       291.97601
      7380.05       290.47053
      7382.13       291.64668
      7384.22       295.26507
      7386.30       295.91518
      7388.38       294.11844
      7390.46       291.52615
      7392.54       288.42506
      7394.63       287.99718
      7396.71       289.42995
      7398.79       290.87016
      7400.87       292.04840
      7402.96       291.61532
      7405.04       290.11220
      7407.12       288.61686
      7409.20       287.12957
      7411.28       285.12408
      7413.37       288.13069
      7415.45       293.05259
      7417.53       297.23643
      7419.61       297.61732
      7421.70       295.53877
      7423.78       294.01588
      7425.86       293.85099
      7427.94       294.77017
      7430.03       293.79200
      7432.11       292.54772
      7434.19       292.11481
      7436.27       293.02876
      7438.35       293.94557
      7440.44       292.43124
      7442.52       290.92475
      7444.60       290.49451
      7446.68       290.59943
      7448.77       289.63579
      7450.85       287.87847
      7452.93       285.86866
      7455.01       285.44607
      7457.09       289.25529
      7459.18       294.46858
      7461.26       297.57508
      7463.34       293.86913
      7465.42       286.22776
      7467.51       281.10557
      7469.59       278.11694
      7471.67       275.92126
      7473.75       276.27597
      7475.84       280.22148
      7477.92       284.48493
      7480.00       285.90226
      7482.08       282.60239
      7484.16       279.08333
      7486.25       276.62560
      7488.33       276.47177
      7490.41       279.13196
      7492.49       282.33709
      7494.58       283.74383
      7496.66       283.06434
      7498.74       281.86691
      7500.82       281.45097
      7502.90       281.55408
      7504.99       282.43639
      7507.07       284.36744
      7509.15       284.47151
      7511.23       284.57588
      7513.32       285.20519
      7515.40       286.36294
      7517.48       287.79023
      7519.56       289.49124
      7521.65       290.39878
      7523.73       289.43742
      7525.81       287.15357
      7527.89       284.88797
      7529.97       282.11994
      7532.06       279.37887
      7534.14       277.43005
      7536.22       276.00275
      7538.30       276.86837
      7540.39       280.04874
      7542.47       279.89415
      7544.55       278.45433
      7546.63       280.87585
      7548.71       286.73100
      7550.80       290.55963
      7552.88       289.86500
      7554.96       288.37415
      7557.04       285.57282
      7559.13       279.69035
      7561.21       276.20937
      7563.29       276.56625
      7565.37       277.94566
      7567.46       277.53714
      7569.54       274.58818
      7571.62       274.18468
      7573.70       274.53914
      7575.78       274.64121
      7577.87       271.22315
      7579.95       270.32613
      7582.03       270.42673
      7584.11       269.53241
      7586.20       262.52615
      7588.28       246.90748
      7590.36       224.02478
      7592.44       195.01034
      7594.52       159.59505
      7596.61       129.53329
      7598.69       106.69481
      7600.77       90.845918
      7602.85       82.730862
      7604.94       84.300408
      7607.02       89.782474
      7609.10       98.662957
      7611.18       111.35672
      7613.27       133.31496
      7615.35       156.40162
      7617.43       174.74466
      7619.51       181.37033
      7621.59       172.47612
      7623.68       161.61880
      7625.76       151.72415
      7627.84       145.48476
      7629.92       146.88597
      7632.01       150.36382
      7634.09       155.63470
      7636.17       162.43120
      7638.25       167.50695
      7640.33       171.31522
      7642.42       175.69492
      7644.50       180.85177
      7646.58       185.13402
      7648.66       188.99471
      7650.75       194.00500
      7652.83       200.62121
      7654.91       209.18972
      7656.99       215.92557
      7659.08       221.44618
      7661.16       226.89863
      7663.24       233.77379
      7665.32       238.20992
      7667.40       242.73022
      7669.49       246.88121
      7671.57       250.41049
      7673.65       248.89526
      7675.73       247.38940
      7677.82       247.48297
      7679.90       250.78981
      7681.98       258.86562
      7684.06       265.24006
      7686.14       268.78409
      7688.23       268.88613
      7690.31       267.50579
      7692.39       263.93563
      7694.47       258.26351
      7696.56       252.48055
      7698.64       253.50881
      7700.72       254.54101
      7702.80       256.52122
      7704.89       259.47069
      7706.97       264.63894
      7709.05       265.71686
      7711.13       265.81796
      7713.21       265.43000
      7715.30       266.26584
      7717.38       268.09037
      7719.46       269.67886
      7721.54       270.77755
      7723.63       271.88054
      7725.71       271.23394
      7727.79       269.84223
      7729.87       265.26261
      7731.95       257.42000
      7734.04       251.42480
      7736.12       254.55071
      7738.20       259.86063
      7740.28       264.06266
      7742.37       265.38303
      7744.45       261.36034
      7746.53       258.34864
      7748.61       258.44782
      7750.70       264.08245
      7752.78       269.09536
      7754.86       272.44130
      7756.94       273.55192
      7759.02       271.64807
      7761.11       264.34645
      7763.19       260.57956
      7765.27       261.64198
      7767.35       267.83947
      7769.44       269.42737
      7771.52       269.53127
      7773.60       269.13876
      7775.68       268.74716
      7777.76       269.84286
      7779.85       271.94355
      7781.93       273.80795
      7784.01       274.16603
      7786.09       275.28424
      7788.18       273.62092
      7790.26       270.46871
      7792.34       266.61512
      7794.42       263.54370
      7796.50       264.37533
      7798.59       265.94324
      7800.67       266.78227
      7802.75       264.19525
      7804.83       268.22136
      7806.92       270.55884
      7809.00       269.42000
      7811.08       263.63212
      7813.16       258.44426
      7815.25       262.62451
      7817.33       268.84619
      7819.41       268.45577
      7821.49       258.13184
      7823.57       254.92367
      7825.66       254.08494
      7827.74       252.31777
      7829.82       243.95916
      7831.90       242.70911
      7833.99       245.27609
      7836.07       248.55592
      7838.15       247.73859
      7840.23       250.35884
      7842.31       257.94808
      7844.40       268.22632
      7846.48       268.08399
      7848.56       258.01243
      7850.64       247.40598
      7852.73       240.31441
      7854.81       243.75269
      7856.89       249.98798
      7858.97       252.16747
      7861.06       250.41423
      7863.14       246.84753
      7865.22       243.10779
      7867.30       241.86272
      7869.38       243.29830
      7871.47       247.23474
      7873.55       245.96860
      7875.63       244.25870
      7877.71       244.12960
      7879.80       246.48513
      7881.88       251.62927
      7883.96       247.58937
      7886.04       243.83853
      7888.12       245.28613
      7890.21       255.76667
      7892.29       258.71078
      7894.37       257.14945
      7896.45       253.25416
      7898.54       248.72966
      7900.62       252.52168
      7902.70       255.66411
      7904.78       256.47251
      7906.87       254.22142
      7908.95       261.20608
      7911.03       265.43276
      7913.11       264.31755
      7915.19       255.79826
      7917.28       247.55354
      7919.36       242.23721
      7921.44       241.21939
      7923.52       245.34881
      7925.61       255.12663
      7927.69       256.16966
      7929.77       253.45408
      7931.85       250.30611
      7933.94       248.33806
      7936.02       249.58333
      7938.10       254.32418
      7940.18       260.83136
      7942.26       259.97520
      7944.35       256.74645
      7946.43       255.90377
      7948.51       256.95032
      7950.59       256.81574
      7952.68       247.62494
      7954.76       242.97790
      7956.84       244.42153
      7958.92       252.29701
      7961.00       248.01905
      7963.09       242.02368
      7965.17       239.45886
      7967.25       246.03891
      7969.33       254.90397
      7971.42       254.77081
      7973.50       247.69824
      7975.58       236.64441
      7977.66       229.01796
      7979.75       233.79904
      7981.83       243.11750
      7983.91       250.95140
      7985.99       249.20864
      7988.07       247.93429
      7990.16       248.26195
      7992.24       249.27797
      7994.32       244.82603
      7996.40       240.67530
      7998.49       239.44475
      8000.57       239.32013
      8002.65       234.18167
      8004.73       226.00981
      8006.81       221.76917
      8008.90       222.67700
      8010.98       229.21835
      8013.06       235.95212
      8015.14       243.55559
      8017.23       248.87001
      8019.31       248.28303
      8021.39       247.24146
      8023.47       246.88577
      8025.55       244.72073
      8027.64       240.12933
      8029.72       239.56315
      8031.80       240.98764
      8033.88       240.41951
      8035.97       235.90893
      8038.05       232.76593
      8040.13       235.23094
      8042.21       241.02923
      8044.30       247.65364
      8046.38       246.84245
      8048.46       247.85352
      8050.54       247.49718
      8052.62       245.77949
      8054.71       244.97478
      8056.79       244.17249
      8058.87       245.39861
      8060.95       248.22635
      8063.04       251.54964
      8065.12       253.27898
      8067.20       252.21741
      8069.28       247.94252
      8071.36       239.95324
      8073.45       237.19334
      8075.53       242.36986
      8077.61       252.26378
      8079.69       263.28797
      8081.78       265.34271
      8083.86       259.88620
      8085.94       251.04965
      8088.02       240.95510
      8090.10       232.97668
      8092.19       232.85678
      8094.27       234.67419
      8096.35       235.41917
      8098.43       232.92634
      8100.52       227.29783
      8102.60       223.44577
      8104.68       222.30485
      8106.76       224.45315
      8108.85       223.30711
      8110.93       221.14620
      8113.01       219.20808
      8115.09       218.49120
      8117.17       218.58022
      8119.26       218.66953
      8121.34       217.75355
      8123.42       214.85359
      8125.50       217.13009
      8127.59       218.22158
      8129.67       216.30913
      8131.75       210.69414
      8133.83       205.60328
      8135.92       205.11991
      8138.00       205.96126
      8140.08       207.95206
      8142.16       215.64581
      8144.24       224.03675
      8146.33       226.20231
      8148.41       222.77947
      8150.49       221.23468
      8152.57       218.48980
      8154.66       214.78773
      8156.74       209.40525
      8158.82       201.17135
      8160.00       219.50290
      8240.00       215.26140
      8320.00       199.79018
      8400.00       203.35844
      8480.00       188.81170
      8560.00       185.29900
      8640.00       185.26497
      8720.00       181.88121
      8800.00       159.90259
      8880.00       159.95385
      8960.00       158.56404
      9040.00       161.61582
      9120.00       154.46538
      9200.00       142.31311
      9280.00       136.05820
      9360.00       148.00243
      9440.00       129.08533
      9520.00       124.60825
      9600.00       124.81834
      9680.00       129.73882
      9760.00       127.62067
      9840.00       115.56608
      9920.00       110.61076
      10000.0       108.84806
      10080.0       107.12717
      10160.0       112.46909
      10240.0       102.85388
      10320.0       109.00871
      10400.0       111.36632
      10480.0       100.94814
      10560.0       94.079041
      10640.0       89.317689
